3996.73391,0.00052
3994.67373,0.00047
3992.61356,0.00058
3990.55339,0.00088
3988.49322,0.00117
3986.43305,0.00122
3984.37287,0.00096
3982.31270,0.00054
3980.25253,0.00014
3978.19236,0.00000
3976.13219,0.00021
3974.07201,0.00053
3972.01184,0.00066
3969.95167,0.00060
3967.89150,0.00051
3965.83133,0.00067
3963.77115,0.00104
3961.71098,0.00125
3959.65081,0.00109
3957.59064,0.00082
3955.53046,0.00073
3953.47029,0.00073
3951.41012,0.00064
3949.34995,0.00070
3947.28978,0.00097
3945.22960,0.00101
3943.16943,0.00071
3941.10926,0.00046
3939.04909,0.00049
3936.98892,0.00065
3934.92874,0.00074
3932.86857,0.00071
3930.80840,0.00055
3928.74823,0.00022
3926.68805,0.00000
3924.62788,0.00031
3922.56771,0.00096
3920.50754,0.00130
3918.44737,0.00132
3916.38719,0.00138
3914.32702,0.00145
3912.26685,0.00138
3910.20668,0.00134
3908.14651,0.00141
3906.08633,0.00144
3904.02616,0.00124
3901.96599,0.00082
3899.90582,0.00060
3897.84565,0.00081
3895.78547,0.00101
3893.72530,0.00087
3891.66513,0.00067
3889.60496,0.00065
3887.54478,0.00077
3885.48461,0.00103
3883.42444,0.00123
3881.36427,0.00112
3879.30410,0.00092
3877.24392,0.00089
3875.18375,0.00106
3873.12358,0.00137
3871.06341,0.00154
3869.00324,0.00122
3866.94306,0.00071
3864.88289,0.00060
3862.82272,0.00071
3860.76255,0.00070
3858.70237,0.00065
3856.64220,0.00054
3854.58203,0.00040
3852.52186,0.00073
3850.46169,0.00121
3848.40151,0.00119
3846.34134,0.00091
3844.28117,0.00073
3842.22100,0.00061
3840.16083,0.00048
3838.10065,0.00044
3836.04048,0.00053
3833.98031,0.00064
3831.92014,0.00069
3829.85997,0.00078
3827.79979,0.00104
3825.73962,0.00129
3823.67945,0.00137
3821.61928,0.00124
3819.55910,0.00099
3817.49893,0.00088
3815.43876,0.00104
3813.37859,0.00105
3811.31842,0.00090
3809.25824,0.00115
3807.19807,0.00175
3805.13790,0.00204
3803.07773,0.00203
3801.01756,0.00199
3798.95738,0.00194
3796.89721,0.00187
3794.83704,0.00170
3792.77687,0.00146
3790.71670,0.00128
3788.65652,0.00126
3786.59635,0.00134
3784.53618,0.00141
3782.47601,0.00126
3780.41583,0.00085
3778.35566,0.00049
3776.29549,0.00052
3774.23532,0.00081
3772.17515,0.00102
3770.11497,0.00093
3768.05480,0.00070
3765.99463,0.00059
3763.93446,0.00062
3761.87429,0.00074
3759.81411,0.00095
3757.75394,0.00105
3755.69377,0.00108
3753.63360,0.00143
3751.57342,0.00193
3749.51325,0.00202
3747.45308,0.00195
3745.39291,0.00192
3743.33274,0.00168
3741.27256,0.00154
3739.21239,0.00180
3737.15222,0.00199
3735.09205,0.00152
3733.03188,0.00078
3730.97170,0.00039
3728.91153,0.00033
3726.85136,0.00049
3724.79119,0.00083
3722.73102,0.00119
3720.67084,0.00124
3718.61067,0.00105
3716.55050,0.00099
3714.49033,0.00111
3712.43015,0.00138
3710.36998,0.00176
3708.30981,0.00193
3706.24964,0.00179
3704.18947,0.00161
3702.12929,0.00156
3700.06912,0.00160
3698.00895,0.00164
3695.94878,0.00181
3693.88861,0.00209
3691.82843,0.00234
3689.76826,0.00249
3687.70809,0.00242
3685.64792,0.00218
3683.58775,0.00205
3681.52757,0.00224
3679.46740,0.00270
3677.40723,0.00304
3675.34706,0.00289
3673.28688,0.00251
3671.22671,0.00253
3669.16654,0.00297
3667.10637,0.00335
3665.04620,0.00373
3662.98602,0.00428
3660.92585,0.00472
3658.86568,0.00481
3656.80551,0.00485
3654.74534,0.00532
3652.68516,0.00615
3650.62499,0.00697
3648.56482,0.00736
3646.50465,0.00710
3644.44447,0.00689
3642.38430,0.00719
3640.32413,0.00780
3638.26396,0.00853
3636.20379,0.00924
3634.14361,0.00961
3632.08344,0.00954
3630.02327,0.00941
3627.96310,0.00980
3625.90293,0.01070
3623.84275,0.01133
3621.78258,0.01143
3619.72241,0.01138
3617.66224,0.01161
3615.60207,0.01224
3613.54189,0.01321
3611.48172,0.01426
3609.42155,0.01511
3607.36138,0.01579
3605.30120,0.01636
3603.24103,0.01680
3601.18086,0.01724
3599.12069,0.01773
3597.06052,0.01839
3595.00034,0.01925
3592.94017,0.01989
3590.88000,0.02002
3588.81983,0.02014
3586.75966,0.02073
3584.69948,0.02154
3582.63931,0.02233
3580.57914,0.02298
3578.51897,0.02331
3576.45879,0.02354
3574.39862,0.02401
3572.33845,0.02456
3570.27828,0.02509
3568.21811,0.02582
3566.15793,0.02657
3564.09776,0.02693
3562.03759,0.02719
3559.97742,0.02763
3557.91725,0.02825
3555.85707,0.02900
3553.79690,0.02967
3551.73673,0.03024
3549.67656,0.03085
3547.61639,0.03142
3545.55621,0.03183
3543.49604,0.03217
3541.43587,0.03252
3539.37570,0.03300
3537.31552,0.03364
3535.25535,0.03424
3533.19518,0.03452
3531.13501,0.03462
3529.07484,0.03507
3527.01466,0.03602
3524.95449,0.03702
3522.89432,0.03772
3520.83415,0.03811
3518.77398,0.03814
3516.71380,0.03812
3514.65363,0.03863
3512.59346,0.03957
3510.53329,0.04042
3508.47312,0.04105
3506.41294,0.04160
3504.35277,0.04210
3502.29260,0.04237
3500.23243,0.04239
3498.17225,0.04277
3496.11208,0.04364
3494.05191,0.04422
3491.99174,0.04436
3489.93157,0.04481
3487.87139,0.04551
3485.81122,0.04583
3483.75105,0.04602
3481.69088,0.04639
3479.63071,0.04670
3477.57053,0.04684
3475.51036,0.04705
3473.45019,0.04760
3471.39002,0.04832
3469.32984,0.04896
3467.26967,0.04946
3465.20950,0.04961
3463.14933,0.04958
3461.08916,0.05007
3459.02898,0.05091
3456.96881,0.05135
3454.90864,0.05145
3452.84847,0.05168
3450.78830,0.05207
3448.72812,0.05236
3446.66795,0.05257
3444.60778,0.05304
3442.54761,0.05390
3440.48744,0.05463
3438.42726,0.05488
3436.36709,0.05507
3434.30692,0.05526
3432.24675,0.05524
3430.18657,0.05519
3428.12640,0.05551
3426.06623,0.05626
3424.00606,0.05690
3421.94589,0.05707
3419.88571,0.05705
3417.82554,0.05735
3415.76537,0.05794
3413.70520,0.05829
3411.64503,0.05826
3409.58485,0.05813
3407.52468,0.05839
3405.46451,0.05903
3403.40434,0.05930
3401.34416,0.05919
3399.28399,0.05932
3397.22382,0.05958
3395.16365,0.05998
3393.10348,0.06054
3391.04330,0.06081
3388.98313,0.06076
3386.92296,0.06083
3384.86279,0.06105
3382.80262,0.06128
3380.74244,0.06149
3378.68227,0.06159
3376.62210,0.06167
3374.56193,0.06192
3372.50176,0.06199
3370.44158,0.06160
3368.38141,0.06138
3366.32124,0.06185
3364.26107,0.06252
3362.20089,0.06278
3360.14072,0.06296
3358.08055,0.06350
3356.02038,0.06396
3353.96021,0.06388
3351.90003,0.06360
3349.83986,0.06371
3347.77969,0.06396
3345.71952,0.06391
3343.65935,0.06360
3341.59917,0.06324
3339.53900,0.06312
3337.47883,0.06323
3335.41866,0.06337
3333.35849,0.06348
3331.29831,0.06365
3329.23814,0.06393
3327.17797,0.06409
3325.11780,0.06400
3323.05762,0.06395
3320.99745,0.06423
3318.93728,0.06462
3316.87711,0.06474
3314.81694,0.06464
3312.75676,0.06463
3310.69659,0.06456
3308.63642,0.06426
3306.57625,0.06421
3304.51608,0.06451
3302.45590,0.06466
3300.39573,0.06452
3298.33556,0.06453
3296.27539,0.06491
3294.21521,0.06519
3292.15504,0.06516
3290.09487,0.06508
3288.03470,0.06504
3285.97453,0.06512
3283.91435,0.06543
3281.85418,0.06566
3279.79401,0.06553
3277.73384,0.06532
3275.67367,0.06525
3273.61349,0.06516
3271.55332,0.06512
3269.49315,0.06535
3267.43298,0.06569
3265.37281,0.06595
3263.31263,0.06601
3261.25246,0.06599
3259.19229,0.06613
3257.13212,0.06625
3255.07194,0.06616
3253.01177,0.06594
3250.95160,0.06568
3248.89143,0.06555
3246.83126,0.06555
3244.77108,0.06548
3242.71091,0.06527
3240.65074,0.06518
3238.59057,0.06541
3236.53040,0.06556
3234.47022,0.06539
3232.41005,0.06516
3230.34988,0.06502
3228.28971,0.06506
3226.22954,0.06524
3224.16936,0.06520
3222.10919,0.06488
3220.04902,0.06458
3217.98885,0.06453
3215.92867,0.06447
3213.86850,0.06424
3211.80833,0.06418
3209.74816,0.06413
3207.68799,0.06393
3205.62781,0.06378
3203.56764,0.06368
3201.50747,0.06353
3199.44730,0.06351
3197.38713,0.06359
3195.32695,0.06348
3193.26678,0.06318
3191.20661,0.06290
3189.14644,0.06276
3187.08626,0.06278
3185.02609,0.06275
3182.96592,0.06266
3180.90575,0.06263
3178.84558,0.06247
3176.78540,0.06198
3174.72523,0.06149
3172.66506,0.06144
3170.60489,0.06159
3168.54472,0.06146
3166.48454,0.06115
3164.42437,0.06102
3162.36420,0.06110
3160.30403,0.06097
3158.24386,0.06048
3156.18368,0.06015
3154.12351,0.06014
3152.06334,0.06010
3150.00317,0.05972
3147.94299,0.05913
3145.88282,0.05889
3143.82265,0.05905
3141.76248,0.05904
3139.70231,0.05871
3137.64213,0.05825
3135.58196,0.05786
3133.52179,0.05762
3131.46162,0.05742
3129.40145,0.05726
3127.34127,0.05715
3125.28110,0.05696
3123.22093,0.05669
3121.16076,0.05639
3119.10058,0.05616
3117.04041,0.05616
3114.98024,0.05604
3112.92007,0.05566
3110.85990,0.05543
3108.79972,0.05530
3106.73955,0.05501
3104.67938,0.05472
3102.61921,0.05448
3100.55904,0.05417
3098.49886,0.05390
3096.43869,0.05368
3094.37852,0.05333
3092.31835,0.05305
3090.25818,0.05294
3088.19800,0.05276
3086.13783,0.05235
3084.07766,0.05184
3082.01749,0.05156
3079.95731,0.05156
3077.89714,0.05144
3075.83697,0.05098
3073.77680,0.05050
3071.71663,0.05025
3069.65645,0.05008
3067.59628,0.04974
3065.53611,0.04933
3063.47594,0.04907
3061.41577,0.04897
3059.35559,0.04885
3057.29542,0.04853
3055.23525,0.04809
3053.17508,0.04777
3051.11491,0.04763
3049.05473,0.04751
3046.99456,0.04715
3044.93439,0.04672
3042.87422,0.04651
3040.81404,0.04637
3038.75387,0.04612
3036.69370,0.04582
3034.63353,0.04541
3032.57336,0.04493
3030.51318,0.04462
3028.45301,0.04441
3026.39284,0.04415
3024.33267,0.04390
3022.27250,0.04363
3020.21232,0.04343
3018.15215,0.04335
3016.09198,0.04310
3014.03181,0.04270
3011.97163,0.04245
3009.91146,0.04224
3007.85129,0.04179
3005.79112,0.04137
3003.73095,0.04119
3001.67077,0.04110
2999.61060,0.04086
2997.55043,0.04043
2995.49026,0.04009
2993.43009,0.04006
2991.36991,0.04008
2989.30974,0.03985
2987.24957,0.03935
2985.18940,0.03882
2983.12923,0.03863
2981.06905,0.03893
2979.00888,0.03923
2976.94871,0.03909
2974.88854,0.03878
2972.82836,0.03846
2970.76819,0.03819
2968.70802,0.03821
2966.64785,0.03846
2964.58768,0.03869
2962.52750,0.03872
2960.46733,0.03853
2958.40716,0.03840
2956.34699,0.03842
2954.28682,0.03843
2952.22664,0.03842
2950.16647,0.03849
2948.10630,0.03872
2946.04613,0.03910
2943.98596,0.03936
2941.92578,0.03931
2939.86561,0.03911
2937.80544,0.03886
2935.74527,0.03876
2933.68509,0.03874
2931.62492,0.03860
2929.56475,0.03849
2927.50458,0.03847
2925.44441,0.03834
2923.38423,0.03813
2921.32406,0.03811
2919.26389,0.03806
2917.20372,0.03771
2915.14355,0.03729
2913.08337,0.03697
2911.02320,0.03669
2908.96303,0.03644
2906.90286,0.03609
2904.84268,0.03583
2902.78251,0.03589
2900.72234,0.03592
2898.66217,0.03577
2896.60200,0.03572
2894.54182,0.03577
2892.48165,0.03577
2890.42148,0.03573
2888.36131,0.03567
2886.30114,0.03560
2884.24096,0.03555
2882.18079,0.03550
2880.12062,0.03537
2878.06045,0.03515
2876.00028,0.03495
2873.94010,0.03482
2871.87993,0.03468
2869.81976,0.03438
2867.75959,0.03397
2865.69941,0.03368
2863.63924,0.03358
2861.57907,0.03351
2859.51890,0.03335
2857.45873,0.03315
2855.39855,0.03299
2853.33838,0.03279
2851.27821,0.03252
2849.21804,0.03237
2847.15787,0.03227
2845.09769,0.03189
2843.03752,0.03144
2840.97735,0.03129
2838.91718,0.03136
2836.85700,0.03134
2834.79683,0.03109
2832.73666,0.03076
2830.67649,0.03049
2828.61632,0.03031
2826.55614,0.03002
2824.49597,0.02979
2822.43580,0.02979
2820.37563,0.02973
2818.31546,0.02970
2816.25528,0.02987
2814.19511,0.02996
2812.13494,0.02971
2810.07477,0.02914
2808.01460,0.02855
2805.95442,0.02832
2803.89425,0.02847
2801.83408,0.02870
2799.77391,0.02875
2797.71373,0.02850
2795.65356,0.02809
2793.59339,0.02783
2791.53322,0.02777
2789.47305,0.02772
2787.41287,0.02755
2785.35270,0.02725
2783.29253,0.02696
2781.23236,0.02686
2779.17219,0.02684
2777.11201,0.02676
2775.05184,0.02667
2772.99167,0.02654
2770.93150,0.02631
2768.87133,0.02619
2766.81115,0.02631
2764.75098,0.02635
2762.69081,0.02610
2760.63064,0.02583
2758.57046,0.02568
2756.51029,0.02562
2754.45012,0.02551
2752.38995,0.02535
2750.32978,0.02526
2748.26960,0.02513
2746.20943,0.02496
2744.14926,0.02480
2742.08909,0.02468
2740.02892,0.02462
2737.96874,0.02456
2735.90857,0.02441
2733.84840,0.02435
2731.78823,0.02437
2729.72805,0.02416
2727.66788,0.02389
2725.60771,0.02372
2723.54754,0.02357
2721.48737,0.02346
2719.42719,0.02337
2717.36702,0.02328
2715.30685,0.02313
2713.24668,0.02291
2711.18651,0.02265
2709.12633,0.02255
2707.06616,0.02268
2705.00599,0.02267
2702.94582,0.02240
2700.88565,0.02206
2698.82547,0.02183
2696.76530,0.02176
2694.70513,0.02169
2692.64496,0.02149
2690.58478,0.02133
2688.52461,0.02136
2686.46444,0.02142
2684.40427,0.02129
2682.34410,0.02102
2680.28392,0.02076
2678.22375,0.02057
2676.16358,0.02031
2674.10341,0.01989
2672.04324,0.01959
2669.98306,0.01958
2667.92289,0.01967
2665.86272,0.01969
2663.80255,0.01965
2661.74238,0.01953
2659.68220,0.01933
2657.62203,0.01908
2655.56186,0.01884
2653.50169,0.01862
2651.44151,0.01833
2649.38134,0.01786
2647.32117,0.01743
2645.26100,0.01721
2643.20083,0.01708
2641.14065,0.01704
2639.08048,0.01715
2637.02031,0.01735
2634.96014,0.01742
2632.89997,0.01716
2630.83979,0.01684
2628.77962,0.01676
2626.71945,0.01671
2624.65928,0.01652
2622.59910,0.01617
2620.53893,0.01575
2618.47876,0.01543
2616.41859,0.01532
2614.35842,0.01545
2612.29824,0.01560
2610.23807,0.01557
2608.17790,0.01534
2606.11773,0.01485
2604.05756,0.01437
2601.99738,0.01423
2599.93721,0.01428
2597.87704,0.01428
2595.81687,0.01410
2593.75670,0.01393
2591.69652,0.01386
2589.63635,0.01381
2587.57618,0.01392
2585.51601,0.01395
2583.45583,0.01383
2581.39566,0.01373
2579.33549,0.01344
2577.27532,0.01321
2575.21515,0.01318
2573.15497,0.01291
2571.09480,0.01255
2569.03463,0.01252
2566.97446,0.01298
2564.91429,0.01367
2562.85411,0.01390
2560.79394,0.01357
2558.73377,0.01313
2556.67360,0.01279
2554.61342,0.01261
2552.55325,0.01266
2550.49308,0.01287
2548.43291,0.01312
2546.37274,0.01336
2544.31256,0.01335
2542.25239,0.01297
2540.19222,0.01267
2538.13205,0.01273
2536.07188,0.01290
2534.01170,0.01295
2531.95153,0.01273
2529.89136,0.01246
2527.83119,0.01246
2525.77102,0.01262
2523.71084,0.01280
2521.65067,0.01293
2519.59050,0.01310
2517.53033,0.01320
2515.47015,0.01301
2513.40998,0.01293
2511.34981,0.01306
2509.28964,0.01307
2507.22947,0.01302
2505.16929,0.01296
2503.10912,0.01285
2501.04895,0.01290
2498.98878,0.01327
2496.92861,0.01360
2494.86843,0.01352
2492.80826,0.01332
2490.74809,0.01319
2488.68792,0.01303
2486.62775,0.01310
2484.56757,0.01341
2482.50740,0.01355
2480.44723,0.01326
2478.38706,0.01289
2476.32688,0.01304
2474.26671,0.01360
2472.20654,0.01405
2470.14637,0.01418
2468.08620,0.01397
2466.02602,0.01366
2463.96585,0.01354
2461.90568,0.01353
2459.84551,0.01366
2457.78534,0.01417
2455.72516,0.01467
2453.66499,0.01476
2451.60482,0.01452
2449.54465,0.01408
2447.48447,0.01371
2445.42430,0.01361
2443.36413,0.01366
2441.30396,0.01363
2439.24379,0.01357
2437.18361,0.01369
2435.12344,0.01379
2433.06327,0.01364
2431.00310,0.01349
2428.94293,0.01364
2426.88275,0.01404
2424.82258,0.01436
2422.76241,0.01450
2420.70224,0.01429
2418.64207,0.01385
2416.58189,0.01378
2414.52172,0.01390
2412.46155,0.01375
2410.40138,0.01345
2408.34120,0.01327
2406.28103,0.01340
2404.22086,0.01361
2402.16069,0.01368
2400.10052,0.01371
2398.04034,0.01357
2395.98017,0.01339
2393.92000,0.01323
2391.85983,0.01323
2389.79966,0.01346
2387.73948,0.01374
2385.67931,0.01385
2383.61914,0.01388
2381.55897,0.01392
2379.49880,0.01382
2377.43862,0.01355
2375.37845,0.01343
2373.31828,0.01389
2371.25811,0.01486
2369.19793,0.01540
2367.13776,0.01528
2365.07759,0.01554
2363.01742,0.01606
2360.95725,0.01571
2358.89707,0.01419
2356.83690,0.01296
2354.77673,0.01307
2352.71656,0.01360
2350.65639,0.01418
2348.59621,0.01465
2346.53604,0.01460
2344.47587,0.01403
2342.41570,0.01357
2340.35552,0.01361
2338.29535,0.01381
2336.23518,0.01390
2334.17501,0.01359
2332.11484,0.01308
2330.05466,0.01343
2327.99449,0.01467
2325.93432,0.01564
2323.87415,0.01569
2321.81398,0.01506
2319.75380,0.01444
2317.69363,0.01384
2315.63346,0.01279
2313.57329,0.01160
2311.51312,0.01120
2309.45294,0.01184
2307.39277,0.01268
2305.33260,0.01299
2303.27243,0.01297
2301.21225,0.01292
2299.15208,0.01259
2297.09191,0.01188
2295.03174,0.01135
2292.97157,0.01148
2290.91139,0.01200
2288.85122,0.01224
2286.79105,0.01188
2284.73088,0.01116
2282.67071,0.01064
2280.61053,0.01060
2278.55036,0.01080
2276.49019,0.01079
2274.43002,0.01043
2272.36984,0.00996
2270.30967,0.00976
2268.24950,0.00984
2266.18933,0.01004
2264.12916,0.01024
2262.06898,0.01021
2260.00881,0.01020
2257.94864,0.01045
2255.88847,0.01051
2253.82830,0.01027
2251.76812,0.00995
2249.70795,0.00950
2247.64778,0.00947
2245.58761,0.00975
2243.52744,0.00933
2241.46726,0.00862
2239.40709,0.00853
2237.34692,0.00873
2235.28675,0.00849
2233.22657,0.00792
2231.16640,0.00749
2229.10623,0.00736
2227.04606,0.00741
2224.98589,0.00743
2222.92571,0.00720
2220.86554,0.00734
2218.80537,0.00822
2216.74520,0.00872
2214.68503,0.00821
2212.62485,0.00743
2210.56468,0.00719
2208.50451,0.00738
2206.44434,0.00727
2204.38417,0.00720
2202.32399,0.00771
2200.26382,0.00811
2198.20365,0.00791
2196.14348,0.00734
2194.08330,0.00660
2192.02313,0.00600
2189.96296,0.00589
2187.90279,0.00616
2185.84262,0.00643
2183.78244,0.00701
2181.72227,0.00770
2179.66210,0.00723
2177.60193,0.00567
2175.54176,0.00460
2173.48158,0.00530
2171.42141,0.00721
2169.36124,0.00825
2167.30107,0.00747
2165.24089,0.00641
2163.18072,0.00607
2161.12055,0.00520
2159.06038,0.00375
2157.00021,0.00270
2154.94003,0.00192
2152.87986,0.00184
2150.81969,0.00310
2148.75952,0.00463
2146.69935,0.00522
2144.63917,0.00524
2142.57900,0.00511
2140.51883,0.00473
2138.45866,0.00382
2136.39849,0.00276
2134.33831,0.00281
2132.27814,0.00357
2130.21797,0.00401
2128.15780,0.00434
2126.09762,0.00480
2124.03745,0.00552
2121.97728,0.00621
2119.91711,0.00603
2117.85694,0.00545
2115.79676,0.00541
2113.73659,0.00578
2111.67642,0.00588
2109.61625,0.00544
2107.55608,0.00497
2105.49590,0.00491
2103.43573,0.00511
2101.37556,0.00505
2099.31539,0.00452
2097.25521,0.00423
2095.19504,0.00435
2093.13487,0.00453
2091.07470,0.00502
2089.01453,0.00558
2086.95435,0.00535
2084.89418,0.00481
2082.83401,0.00451
2080.77384,0.00395
2078.71367,0.00382
2076.65349,0.00444
2074.59332,0.00434
2072.53315,0.00353
2070.47298,0.00320
2068.41281,0.00359
2066.35263,0.00416
2064.29246,0.00409
2062.23229,0.00348
2060.17212,0.00329
2058.11194,0.00337
2056.05177,0.00355
2053.99160,0.00430
2051.93143,0.00482
2049.87126,0.00425
2047.81108,0.00343
2045.75091,0.00311
2043.69074,0.00297
2041.63057,0.00254
2039.57040,0.00219
2037.51022,0.00278
2035.45005,0.00395
2033.38988,0.00445
2031.32971,0.00407
2029.26954,0.00324
2027.20936,0.00159
2025.14919,0.00000
2023.08902,0.00044
2021.02885,0.00159
2018.96867,0.00140
2016.90850,0.00089
2014.84833,0.00117
2012.78816,0.00193
2010.72799,0.00207
2008.66781,0.00135
2006.60764,0.00094
2004.54747,0.00136
2002.48730,0.00224
2000.42713,0.00309
1998.36695,0.00377
1996.30678,0.00426
1994.24661,0.00344
1992.18644,0.00145
1990.12626,0.00117
1988.06609,0.00250
1986.00592,0.00310
1983.94575,0.00345
1981.88558,0.00380
1979.82540,0.00278
1977.76523,0.00103
1975.70506,0.00027
1973.64489,0.00056
1971.58472,0.00138
1969.52454,0.00203
1967.46437,0.00191
1965.40420,0.00106
1963.34403,0.00013
1961.28386,0.00000
1959.22368,0.00039
1957.16351,0.00087
1955.10334,0.00148
1953.04317,0.00179
1950.98299,0.00160
1948.92282,0.00152
1946.86265,0.00214
1944.80248,0.00268
1942.74231,0.00214
1940.68213,0.00143
1938.62196,0.00122
1936.56179,0.00104
1934.50162,0.00119
1932.44145,0.00193
1930.38127,0.00247
1928.32110,0.00213
1926.26093,0.00139
1924.20076,0.00125
1922.14059,0.00160
1920.08041,0.00182
1918.02024,0.00205
1915.96007,0.00228
1913.89990,0.00210
1911.83972,0.00173
1909.77955,0.00165
1907.71938,0.00203
1905.65921,0.00263
1903.59904,0.00298
1901.53886,0.00282
1899.47869,0.00255
1897.41852,0.00240
1895.35835,0.00222
1893.29818,0.00197
1891.23800,0.00175
1889.17783,0.00166
1887.11766,0.00172
1885.05749,0.00197
1882.99731,0.00229
1880.93714,0.00250
1878.87697,0.00260
1876.81680,0.00257
1874.75663,0.00251
1872.69645,0.00257
1870.63628,0.00260
1868.57611,0.00253
1866.51594,0.00260
1864.45577,0.00274
1862.39559,0.00280
1860.33542,0.00277
1858.27525,0.00276
1856.21508,0.00283
1854.15491,0.00294
1852.09473,0.00293
1850.03456,0.00273
1847.97439,0.00248
1845.91422,0.00239
1843.85404,0.00261
1841.79387,0.00292
1839.73370,0.00297
1837.67353,0.00283
1835.61336,0.00269
1833.55318,0.00272
1831.49301,0.00291
1829.43284,0.00297
1827.37267,0.00281
1825.31250,0.00269
1823.25232,0.00257
1821.19215,0.00232
1819.13198,0.00226
1817.07181,0.00251
1815.01163,0.00278
1812.95146,0.00292
1810.89129,0.00298
1808.83112,0.00291
1806.77095,0.00275
1804.71077,0.00278
1802.65060,0.00308
1800.59043,0.00332
1798.53026,0.00316
1796.47009,0.00285
1794.40991,0.00278
1792.34974,0.00300
1790.28957,0.00330
1788.22940,0.00354
1786.16923,0.00360
1784.10905,0.00346
1782.04888,0.00329
1779.98871,0.00330
1777.92854,0.00345
1775.86836,0.00355
1773.80819,0.00353
1771.74802,0.00350
1769.68785,0.00358
1767.62768,0.00384
1765.56750,0.00427
1763.50733,0.00472
1761.44716,0.00504
1759.38699,0.00518
1757.32682,0.00527
1755.26664,0.00551
1753.20647,0.00583
1751.14630,0.00609
1749.08613,0.00636
1747.02596,0.00676
1744.96578,0.00719
1742.90561,0.00752
1740.84544,0.00773
1738.78527,0.00781
1736.72509,0.00776
1734.66492,0.00775
1732.60475,0.00790
1730.54458,0.00803
1728.48441,0.00818
1726.42423,0.00846
1724.36406,0.00883
1722.30389,0.00921
1720.24372,0.00947
1718.18355,0.00948
1716.12337,0.00951
1714.06320,0.00988
1712.00303,0.01035
1709.94286,0.01069
1707.88268,0.01095
1705.82251,0.01126
1703.76234,0.01149
1701.70217,0.01171
1699.64200,0.01223
1697.58182,0.01293
1695.52165,0.01340
1693.46148,0.01370
1691.40131,0.01402
1689.34114,0.01445
1687.28096,0.01493
1685.22079,0.01551
1683.16062,0.01626
1681.10045,0.01687
1679.04028,0.01728
1676.98010,0.01765
1674.91993,0.01820
1672.85976,0.01900
1670.79959,0.01972
1668.73941,0.02015
1666.67924,0.02040
1664.61907,0.02074
1662.55890,0.02127
1660.49873,0.02183
1658.43855,0.02225
1656.37838,0.02242
1654.31821,0.02250
1652.25804,0.02292
1650.19787,0.02334
1648.13769,0.02329
1646.07752,0.02303
1644.01735,0.02300
1641.95718,0.02307
1639.89701,0.02298
1637.83683,0.02277
1635.77666,0.02267
1633.71649,0.02274
1631.65632,0.02273
1629.59614,0.02259
1627.53597,0.02255
1625.47580,0.02264
1623.41563,0.02257
1621.35546,0.02231
1619.29528,0.02206
1617.23511,0.02185
1615.17494,0.02170
1613.11477,0.02166
1611.05460,0.02161
1608.99442,0.02138
1606.93425,0.02101
1604.87408,0.02064
1602.81391,0.02029
1600.75373,0.01996
1598.69356,0.01954
1596.63339,0.01891
1594.57322,0.01813
1592.51305,0.01735
1590.45287,0.01663
1588.39270,0.01584
1586.33253,0.01500
1584.27236,0.01414
1582.21219,0.01329
1580.15201,0.01252
1578.09184,0.01179
1576.03167,0.01112
1573.97150,0.01074
1571.91133,0.01036
1569.85115,0.00980
1567.79098,0.00934
1565.73081,0.00906
1563.67064,0.00885
1561.61046,0.00867
1559.55029,0.00835
1557.49012,0.00771
1555.42995,0.00695
1553.36978,0.00640
1551.30960,0.00615
1549.24943,0.00613
1547.18926,0.00611
1545.12909,0.00585
1543.06892,0.00521
1541.00874,0.00442
1538.94857,0.00393
1536.88840,0.00377
1534.82823,0.00364
1532.76805,0.00350
1530.70788,0.00342
1528.64771,0.00329
1526.58754,0.00303
1524.52737,0.00280
1522.46719,0.00269
1520.40702,0.00254
1518.34685,0.00223
1516.28668,0.00205
1514.22651,0.00207
1512.16633,0.00209
1510.10616,0.00205
1508.04599,0.00195
1505.98582,0.00176
1503.92565,0.00168
1501.86547,0.00176
1499.80530,0.00183
1497.74513,0.00179
1495.68496,0.00167
1493.62478,0.00162
1491.56461,0.00166
1489.50444,0.00172
1487.44427,0.00175
1485.38410,0.00177
1483.32392,0.00181
1481.26375,0.00192
1479.20358,0.00216
1477.14341,0.00249
1475.08324,0.00295
1473.02306,0.00348
1470.96289,0.00388
1468.90272,0.00414
1466.84255,0.00433
1464.78238,0.00449
1462.72220,0.00465
1460.66203,0.00476
1458.60186,0.00481
1456.54169,0.00496
1454.48151,0.00532
1452.42134,0.00565
1450.36117,0.00581
1448.30100,0.00570
1446.24083,0.00543
1444.18065,0.00526
1442.12048,0.00524
1440.06031,0.00519
1438.00014,0.00501
1435.93997,0.00488
1433.87979,0.00498
1431.81962,0.00526
1429.75945,0.00562
1427.69928,0.00599
1425.63910,0.00634
1423.57893,0.00661
1421.51876,0.00685
1419.45859,0.00707
1417.39842,0.00719
1415.33824,0.00709
1413.27807,0.00690
1411.21790,0.00682
1409.15773,0.00685
1407.09756,0.00683
1405.03738,0.00664
1402.97721,0.00638
1400.91704,0.00617
1398.85687,0.00596
1396.79670,0.00575
1394.73652,0.00562
1392.67635,0.00565
1390.61618,0.00576
1388.55601,0.00583
1386.49583,0.00586
1384.43566,0.00594
1382.37549,0.00609
1380.31532,0.00624
1378.25515,0.00635
1376.19497,0.00645
1374.13480,0.00649
1372.07463,0.00637
1370.01446,0.00617
1367.95429,0.00603
1365.89411,0.00600
1363.83394,0.00599
1361.77377,0.00586
1359.71360,0.00559
1357.65343,0.00538
1355.59325,0.00525
1353.53308,0.00510
1351.47291,0.00482
1349.41274,0.00449
1347.35256,0.00430
1345.29239,0.00437
1343.23222,0.00453
1341.17205,0.00461
1339.11188,0.00459
1337.05170,0.00453
1334.99153,0.00446
1332.93136,0.00434
1330.87119,0.00420
1328.81102,0.00403
1326.75084,0.00389
1324.69067,0.00386
1322.63050,0.00387
1320.57033,0.00388
1318.51015,0.00384
1316.44998,0.00373
1314.38981,0.00359
1312.32964,0.00356
1310.26947,0.00365
1308.20929,0.00372
1306.14912,0.00371
1304.08895,0.00372
1302.02878,0.00381
1299.96861,0.00392
1297.90843,0.00403
1295.84826,0.00410
1293.78809,0.00411
1291.72792,0.00414
1289.66775,0.00424
1287.60757,0.00437
1285.54740,0.00444
1283.48723,0.00442
1281.42706,0.00440
1279.36688,0.00441
1277.30671,0.00442
1275.24654,0.00449
1273.18637,0.00460
1271.12620,0.00469
1269.06602,0.00471
1267.00585,0.00475
1264.94568,0.00477
1262.88551,0.00469
1260.82534,0.00462
1258.76516,0.00468
1256.70499,0.00474
1254.64482,0.00463
1252.58465,0.00441
1250.52447,0.00427
1248.46430,0.00415
1246.40413,0.00386
1244.34396,0.00362
1242.28379,0.00358
1240.22361,0.00346
1238.16344,0.00315
1236.10327,0.00293
1234.04310,0.00285
1231.98293,0.00281
1229.92275,0.00283
1227.86258,0.00283
1225.80241,0.00263
1223.74224,0.00228
1221.68207,0.00200
1219.62189,0.00168
1217.56172,0.00130
1215.50155,0.00104
1213.44138,0.00082
1211.38120,0.00058
1209.32103,0.00028
1207.26086,0.00000
1205.20069,-0.00005
1203.14052,0.00016
1201.08034,0.00038
1199.02017,0.00052
1196.96000,0.00074
1194.89983,0.00108
1192.83966,0.00141
1190.77948,0.00173
1188.71931,0.00216
1186.65914,0.00274
1184.59897,0.00361
1182.53880,0.00473
1180.47862,0.00579
1178.41845,0.00671
1176.35828,0.00785
1174.29811,0.00932
1172.23793,0.01072
1170.17776,0.01191
1168.11759,0.01312
1166.05742,0.01433
1163.99725,0.01540
1161.93707,0.01648
1159.87690,0.01752
1157.81673,0.01834
1155.75656,0.01912
1153.69639,0.02002
1151.63621,0.02110
1149.57604,0.02232
1147.51587,0.02357
1145.45570,0.02484
1143.39552,0.02623
1141.33535,0.02763
1139.27518,0.02904
1137.21501,0.03062
1135.15484,0.03224
1133.09466,0.03375
1131.03449,0.03519
1128.97432,0.03640
1126.91415,0.03740
1124.85398,0.03851
1122.79380,0.03983
1120.73363,0.04118
1118.67346,0.04247
1116.61329,0.04373
1114.55312,0.04510
1112.49294,0.04658
1110.43277,0.04811
1108.37260,0.04982
1106.31243,0.05172
1104.25225,0.05359
1102.19208,0.05542
1100.13191,0.05729
1098.07174,0.05900
1096.01157,0.06054
1093.95139,0.06213
1091.89122,0.06369
1089.83105,0.06515
1087.77088,0.06663
1085.71071,0.06817
1083.65053,0.06971
1081.59036,0.07121
1079.53019,0.07265
1077.47002,0.07405
1075.40985,0.07526
1073.34967,0.07621
1071.28950,0.07695
1069.22933,0.07753
1067.16916,0.07813
1065.10898,0.07866
1063.04881,0.07874
1060.98864,0.07835
1058.92847,0.07795
1056.86830,0.07780
1054.80812,0.07774
1052.74795,0.07745
1050.68778,0.07695
1048.62761,0.07644
1046.56744,0.07564
1044.50726,0.07436
1042.44709,0.07291
1040.38692,0.07151
1038.32675,0.07018
1036.26657,0.06885
1034.20640,0.06740
1032.14623,0.06595
1030.08606,0.06469
1028.02589,0.06349
1025.96571,0.06205
1023.90554,0.06053
1021.84537,0.05924
1019.78520,0.05796
1017.72503,0.05663
1015.66485,0.05535
1013.60468,0.05404
1011.54451,0.05269
1009.48434,0.05145
1007.42417,0.05045
1005.36399,0.04958
1003.30382,0.04881
1001.24365,0.04831
999.18348,0.04819
997.12330,0.04854
995.06313,0.04919
993.00296,0.04973
990.94279,0.05039
988.88262,0.05123
986.82244,0.05181
984.76227,0.05208
982.70210,0.05201
980.64193,0.05143
978.58176,0.05036
976.52158,0.04901
974.46141,0.04752
972.40124,0.04570
970.34107,0.04349
968.28089,0.04116
966.22072,0.03896
964.16055,0.03681
962.10038,0.03471
960.04021,0.03296
957.98003,0.03132
955.91986,0.02963
953.85969,0.02827
951.79952,0.02727
949.73935,0.02642
947.67917,0.02563
945.61900,0.02511
943.55883,0.02491
941.49866,0.02475
939.43849,0.02456
937.37831,0.02441
935.31814,0.02422
933.25797,0.02405
931.19780,0.02392
929.13762,0.02368
927.07745,0.02341
925.01728,0.02323
922.95711,0.02278
920.89694,0.02198
918.83676,0.02123
916.77659,0.02041
914.71642,0.01904
912.65625,0.01755
910.59608,0.01647
908.53590,0.01591
906.47573,0.01590
904.41556,0.01594
902.35539,0.01576
900.29522,0.01570
898.23504,0.01584
896.17487,0.01609
894.11470,0.01640
892.05453,0.01653
889.99435,0.01652
887.93418,0.01660
885.87401,0.01680
883.81384,0.01714
881.75367,0.01760
879.69349,0.01796
877.63332,0.01828
875.57315,0.01904
873.51298,0.02001
871.45281,0.02060
869.39263,0.02050
867.33246,0.02022
865.27229,0.02043
863.21212,0.02055
861.15194,0.02016
859.09177,0.01980
857.03160,0.01958
854.97143,0.01926
852.91126,0.01875
850.85108,0.01828
848.79091,0.01798
846.73074,0.01737
844.67057,0.01622
842.61040,0.01510
840.55022,0.01442
838.49005,0.01397
836.42988,0.01332
834.36971,0.01278
832.30954,0.01247
830.24936,0.01192
828.18919,0.01107
826.12902,0.01005
824.06885,0.00917
822.00867,0.00869
819.94850,0.00833
817.88833,0.00800
815.82816,0.00770
813.76799,0.00731
811.70781,0.00689
809.64764,0.00671
807.58747,0.00691
805.52730,0.00698
803.46713,0.00660
801.40695,0.00614
799.34678,0.00569
797.28661,0.00520
795.22644,0.00481
793.16627,0.00451
791.10609,0.00419
789.04592,0.00389
786.98575,0.00367
784.92558,0.00324
782.86540,0.00277
780.80523,0.00310
778.74506,0.00394
776.68489,0.00431
774.62472,0.00412
772.56454,0.00380
770.50437,0.00390
768.44420,0.00418
766.38403,0.00416
764.32386,0.00401
762.26368,0.00346
760.20351,0.00255
758.14334,0.00226
756.08317,0.00268
754.02299,0.00291
751.96282,0.00239
749.90265,0.00180
747.84248,0.00207
745.78231,0.00252
743.72213,0.00206
741.66196,0.00131
739.60179,0.00122
737.54162,0.00124
735.48145,0.00062
733.42127,0.00000
731.36110,0.00012
729.30093,0.00064
727.24076,0.00084
725.18059,0.00084
723.12041,0.00127
721.06024,0.00169
719.00007,0.00178
716.93990,0.00167
714.87972,0.00189
712.81955,0.00239
710.75938,0.00238
708.69921,0.00179
706.63904,0.00134
704.57886,0.00127
702.51869,0.00131
700.45852,0.00140
698.39835,0.00128
696.33818,0.00082
694.27800,0.00070
692.21783,0.00100
690.15766,0.00113
688.09749,0.00100
686.03731,0.00102
683.97714,0.00125
681.91697,0.00154
679.85680,0.00185
677.79663,0.00170
675.73645,0.00087
673.67628,0.00023
671.61611,0.00026
669.55594,0.00091
667.49577,0.00200
665.43559,0.00203
663.37542,0.00101
661.31525,-0.00031
659.25508,-0.00119
657.19491,-0.00095
655.13473,0.00034
653.07456,0.00166
651.01439,0.00217
648.95422,0.00208
646.89404,0.00212
644.83387,0.00246
642.77370,0.00285
640.71353,0.00286
638.65336,0.00195
636.59318,0.00072
634.53301,0.00078
632.47284,0.00188
630.41267,0.00248
628.35250,0.00231
626.29232,0.00167
624.23215,0.00073
622.17198,0.00111
620.11181,0.00287
618.05164,0.00426
615.99146,0.00467
613.93129,0.00360
611.87112,0.00190
609.81095,0.00137
607.75077,0.00078
605.69060,-0.00008
603.63043,0.00023
601.57026,0.00055
599.51009,0.00000
