3996.73391,-0.00018
3994.67373,-0.00015
3992.61356,0.00005
3990.55339,0.00038
3988.49322,0.00070
3986.43305,0.00077
3984.37287,0.00051
3982.31270,0.00028
3980.25253,0.00025
3978.19236,0.00025
3976.13219,0.00025
3974.07201,0.00029
3972.01184,0.00027
3969.95167,0.00015
3967.89150,0.00000
3965.83133,0.00004
3963.77115,0.00031
3961.71098,0.00048
3959.65081,0.00045
3957.59064,0.00050
3955.53046,0.00065
3953.47029,0.00066
3951.41012,0.00053
3949.34995,0.00047
3947.28978,0.00046
3945.22960,0.00029
3943.16943,0.00017
3941.10926,0.00034
3939.04909,0.00061
3936.98892,0.00063
3934.92874,0.00041
3932.86857,0.00029
3930.80840,0.00034
3928.74823,0.00027
3926.68805,0.00017
3924.62788,0.00040
3922.56771,0.00076
3920.50754,0.00084
3918.44737,0.00079
3916.38719,0.00097
3914.32702,0.00124
3912.26685,0.00124
3910.20668,0.00102
3908.14651,0.00085
3906.08633,0.00079
3904.02616,0.00063
3901.96599,0.00047
3899.90582,0.00072
3897.84565,0.00116
3895.78547,0.00117
3893.72530,0.00081
3891.66513,0.00067
3889.60496,0.00081
3887.54478,0.00073
3885.48461,0.00046
3883.42444,0.00030
3881.36427,0.00036
3879.30410,0.00056
3877.24392,0.00046
3875.18375,0.00010
3873.12358,0.00000
3871.06341,0.00033
3869.00324,0.00070
3866.94306,0.00064
3864.88289,0.00055
3862.82272,0.00078
3860.76255,0.00093
3858.70237,0.00073
3856.64220,0.00037
3854.58203,0.00041
3852.52186,0.00123
3850.46169,0.00187
3848.40151,0.00171
3846.34134,0.00123
3844.28117,0.00087
3842.22100,0.00057
3840.16083,0.00024
3838.10065,0.00004
3836.04048,0.00000
3833.98031,0.00013
3831.92014,0.00048
3829.85997,0.00091
3827.79979,0.00124
3825.73962,0.00130
3823.67945,0.00096
3821.61928,0.00047
3819.55910,0.00039
3817.49893,0.00089
3815.43876,0.00153
3813.37859,0.00150
3811.31842,0.00096
3809.25824,0.00077
3807.19807,0.00107
3805.13790,0.00134
3803.07773,0.00139
3801.01756,0.00133
3798.95738,0.00129
3796.89721,0.00142
3794.83704,0.00155
3792.77687,0.00149
3790.71670,0.00138
3788.65652,0.00138
3786.59635,0.00140
3784.53618,0.00137
3782.47601,0.00133
3780.41583,0.00129
3778.35566,0.00117
3776.29549,0.00088
3774.23532,0.00070
3772.17515,0.00086
3770.11497,0.00104
3768.05480,0.00086
3765.99463,0.00060
3763.93446,0.00060
3761.87429,0.00074
3759.81411,0.00093
3757.75394,0.00111
3755.69377,0.00110
3753.63360,0.00101
3751.57342,0.00114
3749.51325,0.00129
3747.45308,0.00124
3745.39291,0.00131
3743.33274,0.00125
3741.27256,0.00085
3739.21239,0.00068
3737.15222,0.00090
3735.09205,0.00098
3733.03188,0.00083
3730.97170,0.00076
3728.91153,0.00072
3726.85136,0.00074
3724.79119,0.00088
3722.73102,0.00108
3720.67084,0.00113
3718.61067,0.00086
3716.55050,0.00042
3714.49033,0.00040
3712.43015,0.00111
3710.36998,0.00199
3708.30981,0.00211
3706.24964,0.00158
3704.18947,0.00110
3702.12929,0.00100
3700.06912,0.00111
3698.00895,0.00118
3695.94878,0.00136
3693.88861,0.00168
3691.82843,0.00176
3689.76826,0.00158
3687.70809,0.00141
3685.64792,0.00146
3683.58775,0.00179
3681.52757,0.00208
3679.46740,0.00199
3677.40723,0.00165
3675.34706,0.00130
3673.28688,0.00112
3671.22671,0.00152
3669.16654,0.00256
3667.10637,0.00321
3665.04620,0.00316
3662.98602,0.00304
3660.92585,0.00328
3658.86568,0.00379
3656.80551,0.00423
3654.74534,0.00440
3652.68516,0.00434
3650.62499,0.00446
3648.56482,0.00508
3646.50465,0.00563
3644.44447,0.00570
3642.38430,0.00569
3640.32413,0.00592
3638.26396,0.00645
3636.20379,0.00719
3634.14361,0.00770
3632.08344,0.00790
3630.02327,0.00833
3627.96310,0.00906
3625.90293,0.00937
3623.84275,0.00931
3621.78258,0.00927
3619.72241,0.00942
3617.66224,0.00980
3615.60207,0.01026
3613.54189,0.01092
3611.48172,0.01191
3609.42155,0.01281
3607.36138,0.01333
3605.30120,0.01359
3603.24103,0.01381
3601.18086,0.01422
3599.12069,0.01484
3597.06052,0.01549
3595.00034,0.01606
3592.94017,0.01639
3590.88000,0.01635
3588.81983,0.01635
3586.75966,0.01684
3584.69948,0.01760
3582.63931,0.01835
3580.57914,0.01906
3578.51897,0.01954
3576.45879,0.01981
3574.39862,0.02015
3572.33845,0.02047
3570.27828,0.02065
3568.21811,0.02100
3566.15793,0.02166
3564.09776,0.02226
3562.03759,0.02267
3559.97742,0.02305
3557.91725,0.02330
3555.85707,0.02350
3553.79690,0.02391
3551.73673,0.02445
3549.67656,0.02496
3547.61639,0.02541
3545.55621,0.02591
3543.49604,0.02645
3541.43587,0.02679
3539.37570,0.02694
3537.31552,0.02735
3535.25535,0.02802
3533.19518,0.02851
3531.13501,0.02888
3529.07484,0.02937
3527.01466,0.02990
3524.95449,0.03041
3522.89432,0.03094
3520.83415,0.03131
3518.77398,0.03138
3516.71380,0.03138
3514.65363,0.03182
3512.59346,0.03270
3510.53329,0.03349
3508.47312,0.03387
3506.41294,0.03397
3504.35277,0.03415
3502.29260,0.03459
3500.23243,0.03505
3498.17225,0.03553
3496.11208,0.03621
3494.05191,0.03686
3491.99174,0.03723
3489.93157,0.03752
3487.87139,0.03779
3485.81122,0.03794
3483.75105,0.03816
3481.69088,0.03849
3479.63071,0.03872
3477.57053,0.03881
3475.51036,0.03890
3473.45019,0.03910
3471.39002,0.03941
3469.32984,0.04000
3467.26967,0.04076
3465.20950,0.04120
3463.14933,0.04142
3461.08916,0.04189
3459.02898,0.04249
3456.96881,0.04276
3454.90864,0.04279
3452.84847,0.04301
3450.78830,0.04340
3448.72812,0.04367
3446.66795,0.04399
3444.60778,0.04459
3442.54761,0.04521
3440.48744,0.04549
3438.42726,0.04541
3436.36709,0.04530
3434.30692,0.04530
3432.24675,0.04537
3430.18657,0.04563
3428.12640,0.04610
3426.06623,0.04657
3424.00606,0.04703
3421.94589,0.04747
3419.88571,0.04761
3417.82554,0.04756
3415.76537,0.04783
3413.70520,0.04824
3411.64503,0.04830
3409.58485,0.04831
3407.52468,0.04852
3405.46451,0.04878
3403.40434,0.04896
3401.34416,0.04915
3399.28399,0.04933
3397.22382,0.04937
3395.16365,0.04953
3393.10348,0.04985
3391.04330,0.05011
3388.98313,0.05026
3386.92296,0.05046
3384.86279,0.05085
3382.80262,0.05139
3380.74244,0.05165
3378.68227,0.05141
3376.62210,0.05127
3374.56193,0.05156
3372.50176,0.05173
3370.44158,0.05151
3368.38141,0.05136
3366.32124,0.05167
3364.26107,0.05213
3362.20089,0.05225
3360.14072,0.05222
3358.08055,0.05245
3356.02038,0.05287
3353.96021,0.05310
3351.90003,0.05317
3349.83986,0.05331
3347.77969,0.05325
3345.71952,0.05293
3343.65935,0.05275
3341.59917,0.05270
3339.53900,0.05258
3337.47883,0.05252
3335.41866,0.05278
3333.35849,0.05320
3331.29831,0.05332
3329.23814,0.05324
3327.17797,0.05331
3325.11780,0.05337
3323.05762,0.05344
3320.99745,0.05367
3318.93728,0.05386
3316.87711,0.05384
3314.81694,0.05386
3312.75676,0.05400
3310.69659,0.05398
3308.63642,0.05394
3306.57625,0.05404
3304.51608,0.05409
3302.45590,0.05410
3300.39573,0.05412
3298.33556,0.05418
3296.27539,0.05433
3294.21521,0.05441
3292.15504,0.05431
3290.09487,0.05415
3288.03470,0.05407
3285.97453,0.05424
3283.91435,0.05458
3281.85418,0.05472
3279.79401,0.05465
3277.73384,0.05468
3275.67367,0.05484
3273.61349,0.05477
3271.55332,0.05451
3269.49315,0.05441
3267.43298,0.05440
3265.37281,0.05450
3263.31263,0.05484
3261.25246,0.05524
3259.19229,0.05562
3257.13212,0.05581
3255.07194,0.05553
3253.01177,0.05498
3250.95160,0.05465
3248.89143,0.05465
3246.83126,0.05485
3244.77108,0.05503
3242.71091,0.05495
3240.65074,0.05487
3238.59057,0.05509
3236.53040,0.05516
3234.47022,0.05491
3232.41005,0.05475
3230.34988,0.05473
3228.28971,0.05467
3226.22954,0.05458
3224.16936,0.05447
3222.10919,0.05428
3220.04902,0.05400
3217.98885,0.05384
3215.92867,0.05395
3213.86850,0.05404
3211.80833,0.05412
3209.74816,0.05428
3207.68799,0.05423
3205.62781,0.05397
3203.56764,0.05376
3201.50747,0.05352
3199.44730,0.05324
3197.38713,0.05309
3195.32695,0.05308
3193.26678,0.05317
3191.20661,0.05327
3189.14644,0.05335
3187.08626,0.05340
3185.02609,0.05317
3182.96592,0.05264
3180.90575,0.05223
3178.84558,0.05214
3176.78540,0.05205
3174.72523,0.05189
3172.66506,0.05194
3170.60489,0.05193
3168.54472,0.05167
3166.48454,0.05142
3164.42437,0.05129
3162.36420,0.05129
3160.30403,0.05129
3158.24386,0.05108
3156.18368,0.05086
3154.12351,0.05075
3152.06334,0.05067
3150.00317,0.05052
3147.94299,0.05020
3145.88282,0.04983
3143.82265,0.04952
3141.76248,0.04929
3139.70231,0.04915
3137.64213,0.04895
3135.58196,0.04863
3133.52179,0.04851
3131.46162,0.04865
3129.40145,0.04866
3127.34127,0.04844
3125.28110,0.04813
3123.22093,0.04793
3121.16076,0.04782
3119.10058,0.04762
3117.04041,0.04747
3114.98024,0.04739
3112.92007,0.04730
3110.85990,0.04723
3108.79972,0.04698
3106.73955,0.04655
3104.67938,0.04616
3102.61921,0.04582
3100.55904,0.04547
3098.49886,0.04519
3096.43869,0.04503
3094.37852,0.04481
3092.31835,0.04454
3090.25818,0.04451
3088.19800,0.04453
3086.13783,0.04424
3084.07766,0.04394
3082.01749,0.04394
3079.95731,0.04398
3077.89714,0.04371
3075.83697,0.04310
3073.77680,0.04251
3071.71663,0.04219
3069.65645,0.04200
3067.59628,0.04183
3065.53611,0.04169
3063.47594,0.04160
3061.41577,0.04156
3059.35559,0.04149
3057.29542,0.04118
3055.23525,0.04079
3053.17508,0.04070
3051.11491,0.04072
3049.05473,0.04053
3046.99456,0.04015
3044.93439,0.03971
3042.87422,0.03931
3040.81404,0.03903
3038.75387,0.03895
3036.69370,0.03889
3034.63353,0.03848
3032.57336,0.03789
3030.51318,0.03751
3028.45301,0.03728
3026.39284,0.03709
3024.33267,0.03714
3022.27250,0.03721
3020.21232,0.03706
3018.15215,0.03689
3016.09198,0.03676
3014.03181,0.03654
3011.97163,0.03614
3009.91146,0.03566
3007.85129,0.03540
3005.79112,0.03533
3003.73095,0.03518
3001.67077,0.03497
2999.61060,0.03478
2997.55043,0.03449
2995.49026,0.03421
2993.43009,0.03418
2991.36991,0.03421
2989.30974,0.03397
2987.24957,0.03355
2985.18940,0.03317
2983.12923,0.03300
2981.06905,0.03315
2979.00888,0.03335
2976.94871,0.03333
2974.88854,0.03301
2972.82836,0.03262
2970.76819,0.03255
2968.70802,0.03264
2966.64785,0.03247
2964.58768,0.03228
2962.52750,0.03220
2960.46733,0.03215
2958.40716,0.03221
2956.34699,0.03232
2954.28682,0.03234
2952.22664,0.03235
2950.16647,0.03248
2948.10630,0.03264
2946.04613,0.03280
2943.98596,0.03285
2941.92578,0.03264
2939.86561,0.03231
2937.80544,0.03211
2935.74527,0.03203
2933.68509,0.03203
2931.62492,0.03201
2929.56475,0.03182
2927.50458,0.03160
2925.44441,0.03146
2923.38423,0.03139
2921.32406,0.03146
2919.26389,0.03142
2917.20372,0.03104
2915.14355,0.03080
2913.08337,0.03090
2911.02320,0.03101
2908.96303,0.03082
2906.90286,0.03039
2904.84268,0.03008
2902.78251,0.03003
2900.72234,0.03003
2898.66217,0.02999
2896.60200,0.02988
2894.54182,0.02969
2892.48165,0.02953
2890.42148,0.02954
2888.36131,0.02960
2886.30114,0.02961
2884.24096,0.02971
2882.18079,0.02979
2880.12062,0.02963
2878.06045,0.02936
2876.00028,0.02932
2873.94010,0.02946
2871.87993,0.02937
2869.81976,0.02884
2867.75959,0.02820
2865.69941,0.02780
2863.63924,0.02771
2861.57907,0.02771
2859.51890,0.02774
2857.45873,0.02779
2855.39855,0.02769
2853.33838,0.02741
2851.27821,0.02710
2849.21804,0.02691
2847.15787,0.02681
2845.09769,0.02665
2843.03752,0.02643
2840.97735,0.02616
2838.91718,0.02604
2836.85700,0.02610
2834.79683,0.02612
2832.73666,0.02606
2830.67649,0.02591
2828.61632,0.02561
2826.55614,0.02529
2824.49597,0.02519
2822.43580,0.02516
2820.37563,0.02502
2818.31546,0.02503
2816.25528,0.02524
2814.19511,0.02523
2812.13494,0.02492
2810.07477,0.02453
2808.01460,0.02421
2805.95442,0.02403
2803.89425,0.02402
2801.83408,0.02410
2799.77391,0.02411
2797.71373,0.02394
2795.65356,0.02364
2793.59339,0.02338
2791.53322,0.02326
2789.47305,0.02326
2787.41287,0.02327
2785.35270,0.02319
2783.29253,0.02304
2781.23236,0.02294
2779.17219,0.02292
2777.11201,0.02280
2775.05184,0.02258
2772.99167,0.02237
2770.93150,0.02223
2768.87133,0.02213
2766.81115,0.02205
2764.75098,0.02199
2762.69081,0.02196
2760.63064,0.02191
2758.57046,0.02185
2756.51029,0.02177
2754.45012,0.02167
2752.38995,0.02162
2750.32978,0.02155
2748.26960,0.02140
2746.20943,0.02129
2744.14926,0.02127
2742.08909,0.02121
2740.02892,0.02103
2737.96874,0.02083
2735.90857,0.02075
2733.84840,0.02072
2731.78823,0.02058
2729.72805,0.02036
2727.66788,0.02020
2725.60771,0.02000
2723.54754,0.01983
2721.48737,0.01992
2719.42719,0.01993
2717.36702,0.01977
2715.30685,0.01973
2713.24668,0.01964
2711.18651,0.01940
2709.12633,0.01906
2707.06616,0.01878
2705.00599,0.01871
2702.94582,0.01862
2700.88565,0.01842
2698.82547,0.01832
2696.76530,0.01835
2694.70513,0.01832
2692.64496,0.01824
2690.58478,0.01815
2688.52461,0.01806
2686.46444,0.01793
2684.40427,0.01778
2682.34410,0.01776
2680.28392,0.01770
2678.22375,0.01746
2676.16358,0.01719
2674.10341,0.01694
2672.04324,0.01664
2669.98306,0.01646
2667.92289,0.01651
2665.86272,0.01659
2663.80255,0.01651
2661.74238,0.01638
2659.68220,0.01620
2657.62203,0.01594
2655.56186,0.01575
2653.50169,0.01566
2651.44151,0.01557
2649.38134,0.01546
2647.32117,0.01529
2645.26100,0.01499
2643.20083,0.01461
2641.14065,0.01449
2639.08048,0.01472
2637.02031,0.01486
2634.96014,0.01466
2632.89997,0.01429
2630.83979,0.01395
2628.77962,0.01371
2626.71945,0.01369
2624.65928,0.01377
2622.59910,0.01370
2620.53893,0.01346
2618.47876,0.01328
2616.41859,0.01318
2614.35842,0.01304
2612.29824,0.01294
2610.23807,0.01292
2608.17790,0.01280
2606.11773,0.01263
2604.05756,0.01256
2601.99738,0.01244
2599.93721,0.01230
2597.87704,0.01219
2595.81687,0.01194
2593.75670,0.01165
2591.69652,0.01153
2589.63635,0.01162
2587.57618,0.01161
2585.51601,0.01133
2583.45583,0.01130
2581.39566,0.01159
2579.33549,0.01165
2577.27532,0.01145
2575.21515,0.01123
2573.15497,0.01093
2571.09480,0.01068
2569.03463,0.01086
2566.97446,0.01148
2564.91429,0.01206
2562.85411,0.01208
2560.79394,0.01143
2558.73377,0.01078
2556.67360,0.01063
2554.61342,0.01058
2552.55325,0.01051
2550.49308,0.01074
2548.43291,0.01105
2546.37274,0.01104
2544.31256,0.01081
2542.25239,0.01061
2540.19222,0.01051
2538.13205,0.01050
2536.07188,0.01059
2534.01170,0.01072
2531.95153,0.01078
2529.89136,0.01080
2527.83119,0.01084
2525.77102,0.01097
2523.71084,0.01114
2521.65067,0.01127
2519.59050,0.01147
2517.53033,0.01165
2515.47015,0.01160
2513.40998,0.01146
2511.34981,0.01132
2509.28964,0.01117
2507.22947,0.01109
2505.16929,0.01094
2503.10912,0.01084
2501.04895,0.01091
2498.98878,0.01101
2496.92861,0.01100
2494.86843,0.01095
2492.80826,0.01109
2490.74809,0.01124
2488.68792,0.01125
2486.62775,0.01138
2484.56757,0.01167
2482.50740,0.01184
2480.44723,0.01180
2478.38706,0.01160
2476.32688,0.01146
2474.26671,0.01177
2472.20654,0.01228
2470.14637,0.01238
2468.08620,0.01210
2466.02602,0.01194
2463.96585,0.01204
2461.90568,0.01208
2459.84551,0.01216
2457.78534,0.01251
2455.72516,0.01282
2453.66499,0.01289
2451.60482,0.01283
2449.54465,0.01262
2447.48447,0.01244
2445.42430,0.01246
2443.36413,0.01254
2441.30396,0.01248
2439.24379,0.01219
2437.18361,0.01187
2435.12344,0.01165
2433.06327,0.01159
2431.00310,0.01196
2428.94293,0.01253
2426.88275,0.01281
2424.82258,0.01285
2422.76241,0.01294
2420.70224,0.01292
2418.64207,0.01274
2416.58189,0.01265
2414.52172,0.01262
2412.46155,0.01258
2410.40138,0.01246
2408.34120,0.01230
2406.28103,0.01223
2404.22086,0.01206
2402.16069,0.01194
2400.10052,0.01213
2398.04034,0.01198
2395.98017,0.01177
2393.92000,0.01177
2391.85983,0.01193
2389.79966,0.01211
2387.73948,0.01228
2385.67931,0.01241
2383.61914,0.01250
2381.55897,0.01250
2379.49880,0.01227
2377.43862,0.01184
2375.37845,0.01147
2373.31828,0.01112
2371.25811,0.01109
2369.19793,0.01200
2367.13776,0.01328
2365.07759,0.01426
2363.01742,0.01538
2360.95725,0.01615
2358.89707,0.01650
2356.83690,0.01521
2354.77673,0.01389
2352.71656,0.01396
2350.65639,0.01358
2348.59621,0.01304
2346.53604,0.01361
2344.47587,0.01233
2342.41570,0.01094
2340.35552,0.01077
2338.29535,0.01056
2336.23518,0.01017
2334.17501,0.01007
2332.11484,0.01070
2330.05466,0.01173
2327.99449,0.01289
2325.93432,0.01363
2323.87415,0.01408
2321.81398,0.01365
2319.75380,0.01270
2317.69363,0.01145
2315.63346,0.01059
2313.57329,0.01018
2311.51312,0.01027
2309.45294,0.01080
2307.39277,0.01134
2305.33260,0.01164
2303.27243,0.01179
2301.21225,0.01179
2299.15208,0.01146
2297.09191,0.01100
2295.03174,0.01075
2292.97157,0.01072
2290.91139,0.01072
2288.85122,0.01056
2286.79105,0.01014
2284.73088,0.00970
2282.67071,0.00969
2280.61053,0.01009
2278.55036,0.01044
2276.49019,0.01039
2274.43002,0.00993
2272.36984,0.00950
2270.30967,0.00927
2268.24950,0.00902
2266.18933,0.00896
2264.12916,0.00924
2262.06898,0.00947
2260.00881,0.00947
2257.94864,0.00952
2255.88847,0.00975
2253.82830,0.01009
2251.76812,0.01020
2249.70795,0.00997
2247.64778,0.00985
2245.58761,0.00969
2243.52744,0.00903
2241.46726,0.00848
2239.40709,0.00852
2237.34692,0.00834
2235.28675,0.00783
2233.22657,0.00748
2231.16640,0.00693
2229.10623,0.00645
2227.04606,0.00692
2224.98589,0.00786
2222.92571,0.00783
2220.86554,0.00724
2218.80537,0.00726
2216.74520,0.00723
2214.68503,0.00696
2212.62485,0.00707
2210.56468,0.00740
2208.50451,0.00764
2206.44434,0.00751
2204.38417,0.00722
2202.32399,0.00703
2200.26382,0.00704
2198.20365,0.00761
2196.14348,0.00763
2194.08330,0.00642
2192.02313,0.00562
2189.96296,0.00603
2187.90279,0.00693
2185.84262,0.00748
2183.78244,0.00768
2181.72227,0.00743
2179.66210,0.00636
2177.60193,0.00535
2175.54176,0.00497
2173.48158,0.00546
2171.42141,0.00683
2169.36124,0.00771
2167.30107,0.00773
2165.24089,0.00777
2163.18072,0.00717
2161.12055,0.00541
2159.06038,0.00413
2157.00021,0.00402
2154.94003,0.00389
2152.87986,0.00320
2150.81969,0.00262
2148.75952,0.00280
2146.69935,0.00341
2144.63917,0.00414
2142.57900,0.00477
2140.51883,0.00451
2138.45866,0.00329
2136.39849,0.00236
2134.33831,0.00240
2132.27814,0.00312
2130.21797,0.00388
2128.15780,0.00426
2126.09762,0.00436
2124.03745,0.00448
2121.97728,0.00466
2119.91711,0.00482
2117.85694,0.00498
2115.79676,0.00527
2113.73659,0.00550
2111.67642,0.00550
2109.61625,0.00549
2107.55608,0.00554
2105.49590,0.00510
2103.43573,0.00432
2101.37556,0.00406
2099.31539,0.00386
2097.25521,0.00358
2095.19504,0.00383
2093.13487,0.00452
2091.07470,0.00500
2089.01453,0.00499
2086.95435,0.00477
2084.89418,0.00463
2082.83401,0.00432
2080.77384,0.00365
2078.71367,0.00323
2076.65349,0.00370
2074.59332,0.00445
2072.53315,0.00454
2070.47298,0.00419
2068.41281,0.00425
2066.35263,0.00446
2064.29246,0.00381
2062.23229,0.00291
2060.17212,0.00306
2058.11194,0.00378
2056.05177,0.00414
2053.99160,0.00421
2051.93143,0.00411
2049.87126,0.00399
2047.81108,0.00409
2045.75091,0.00408
2043.69074,0.00359
2041.63057,0.00251
2039.57040,0.00139
2037.51022,0.00099
2035.45005,0.00096
2033.38988,0.00088
2031.32971,0.00116
2029.26954,0.00202
2027.20936,0.00271
2025.14919,0.00283
2023.08902,0.00283
2021.02885,0.00219
2018.96867,0.00071
2016.90850,0.00000
2014.84833,0.00077
2012.78816,0.00148
2010.72799,0.00098
2008.66781,0.00035
2006.60764,0.00035
2004.54747,0.00063
2002.48730,0.00137
2000.42713,0.00216
1998.36695,0.00218
1996.30678,0.00189
1994.24661,0.00193
1992.18644,0.00184
1990.12626,0.00169
1988.06609,0.00200
1986.00592,0.00232
1983.94575,0.00294
1981.88558,0.00414
1979.82540,0.00428
1977.76523,0.00320
1975.70506,0.00260
1973.64489,0.00264
1971.58472,0.00273
1969.52454,0.00254
1967.46437,0.00227
1965.40420,0.00203
1963.34403,0.00145
1961.28386,0.00086
1959.22368,0.00085
1957.16351,0.00133
1955.10334,0.00180
1953.04317,0.00208
1950.98299,0.00189
1948.92282,0.00117
1946.86265,0.00070
1944.80248,0.00065
1942.74231,0.00057
1940.68213,0.00071
1938.62196,0.00107
1936.56179,0.00108
1934.50162,0.00080
1932.44145,0.00093
1930.38127,0.00157
1928.32110,0.00168
1926.26093,0.00096
1924.20076,0.00040
1922.14059,0.00055
1920.08041,0.00118
1918.02024,0.00192
1915.96007,0.00204
1913.89990,0.00124
1911.83972,0.00036
1909.77955,0.00043
1907.71938,0.00134
1905.65921,0.00179
1903.59904,0.00132
1901.53886,0.00084
1899.47869,0.00100
1897.41852,0.00141
1895.35835,0.00155
1893.29818,0.00134
1891.23800,0.00090
1889.17783,0.00057
1887.11766,0.00054
1885.05749,0.00073
1882.99731,0.00100
1880.93714,0.00126
1878.87697,0.00151
1876.81680,0.00157
1874.75663,0.00135
1872.69645,0.00118
1870.63628,0.00125
1868.57611,0.00139
1866.51594,0.00138
1864.45577,0.00130
1862.39559,0.00141
1860.33542,0.00166
1858.27525,0.00174
1856.21508,0.00166
1854.15491,0.00164
1852.09473,0.00179
1850.03456,0.00194
1847.97439,0.00193
1845.91422,0.00190
1843.85404,0.00194
1841.79387,0.00203
1839.73370,0.00217
1837.67353,0.00219
1835.61336,0.00196
1833.55318,0.00164
1831.49301,0.00141
1829.43284,0.00132
1827.37267,0.00142
1825.31250,0.00172
1823.25232,0.00196
1821.19215,0.00185
1819.13198,0.00147
1817.07181,0.00122
1815.01163,0.00138
1812.95146,0.00186
1810.89129,0.00230
1808.83112,0.00236
1806.77095,0.00222
1804.71077,0.00221
1802.65060,0.00233
1800.59043,0.00239
1798.53026,0.00230
1796.47009,0.00213
1794.40991,0.00211
1792.34974,0.00241
1790.28957,0.00289
1788.22940,0.00325
1786.16923,0.00337
1784.10905,0.00315
1782.04888,0.00272
1779.98871,0.00252
1777.92854,0.00268
1775.86836,0.00290
1773.80819,0.00306
1771.74802,0.00307
1769.68785,0.00295
1767.62768,0.00298
1765.56750,0.00324
1763.50733,0.00362
1761.44716,0.00409
1759.38699,0.00444
1757.32682,0.00458
1755.26664,0.00466
1753.20647,0.00464
1751.14630,0.00460
1749.08613,0.00484
1747.02596,0.00535
1744.96578,0.00581
1742.90561,0.00609
1740.84544,0.00623
1738.78527,0.00614
1736.72509,0.00576
1734.66492,0.00554
1732.60475,0.00593
1730.54458,0.00653
1728.48441,0.00698
1726.42423,0.00729
1724.36406,0.00748
1722.30389,0.00757
1720.24372,0.00755
1718.18355,0.00748
1716.12337,0.00765
1714.06320,0.00815
1712.00303,0.00867
1709.94286,0.00895
1707.88268,0.00905
1705.82251,0.00928
1703.76234,0.00963
1701.70217,0.00988
1699.64200,0.01024
1697.58182,0.01091
1695.52165,0.01160
1693.46148,0.01195
1691.40131,0.01200
1689.34114,0.01204
1687.28096,0.01213
1685.22079,0.01240
1683.16062,0.01318
1681.10045,0.01402
1679.04028,0.01445
1676.98010,0.01472
1674.91993,0.01522
1672.85976,0.01584
1670.79959,0.01635
1668.73941,0.01694
1666.67924,0.01751
1664.61907,0.01792
1662.55890,0.01827
1660.49873,0.01862
1658.43855,0.01879
1656.37838,0.01869
1654.31821,0.01873
1652.25804,0.01934
1650.19787,0.01982
1648.13769,0.01989
1646.07752,0.01985
1644.01735,0.01972
1641.95718,0.01951
1639.89701,0.01916
1637.83683,0.01876
1635.77666,0.01871
1633.71649,0.01897
1631.65632,0.01900
1629.59614,0.01875
1627.53597,0.01845
1625.47580,0.01826
1623.41563,0.01822
1621.35546,0.01818
1619.29528,0.01799
1617.23511,0.01779
1615.17494,0.01774
1613.11477,0.01765
1611.05460,0.01747
1608.99442,0.01724
1606.93425,0.01694
1604.87408,0.01655
1602.81391,0.01621
1600.75373,0.01591
1598.69356,0.01548
1596.63339,0.01484
1594.57322,0.01408
1592.51305,0.01340
1590.45287,0.01281
1588.39270,0.01224
1586.33253,0.01167
1584.27236,0.01117
1582.21219,0.01071
1580.15201,0.01018
1578.09184,0.00951
1576.03167,0.00884
1573.97150,0.00840
1571.91133,0.00805
1569.85115,0.00768
1567.79098,0.00739
1565.73081,0.00711
1563.67064,0.00674
1561.61046,0.00618
1559.55029,0.00550
1557.49012,0.00522
1555.42995,0.00528
1553.36978,0.00525
1551.30960,0.00503
1549.24943,0.00473
1547.18926,0.00444
1545.12909,0.00410
1543.06892,0.00352
1541.00874,0.00295
1538.94857,0.00292
1536.88840,0.00295
1534.82823,0.00267
1532.76805,0.00238
1530.70788,0.00231
1528.64771,0.00223
1526.58754,0.00206
1524.52737,0.00190
1522.46719,0.00183
1520.40702,0.00174
1518.34685,0.00139
1516.28668,0.00113
1514.22651,0.00120
1512.16633,0.00123
1510.10616,0.00092
1508.04599,0.00055
1505.98582,0.00062
1503.92565,0.00084
1501.86547,0.00083
1499.80530,0.00077
1497.74513,0.00090
1495.68496,0.00099
1493.62478,0.00078
1491.56461,0.00048
1489.50444,0.00053
1487.44427,0.00090
1485.38410,0.00113
1483.32392,0.00111
1481.26375,0.00112
1479.20358,0.00125
1477.14341,0.00137
1475.08324,0.00158
1473.02306,0.00205
1470.96289,0.00252
1468.90272,0.00265
1466.84255,0.00265
1464.78238,0.00283
1462.72220,0.00310
1460.66203,0.00314
1458.60186,0.00302
1456.54169,0.00317
1454.48151,0.00359
1452.42134,0.00386
1450.36117,0.00392
1448.30100,0.00390
1446.24083,0.00388
1444.18065,0.00378
1442.12048,0.00357
1440.06031,0.00332
1438.00014,0.00316
1435.93997,0.00328
1433.87979,0.00350
1431.81962,0.00366
1429.75945,0.00384
1427.69928,0.00401
1425.63910,0.00416
1423.57893,0.00437
1421.51876,0.00455
1419.45859,0.00470
1417.39842,0.00490
1415.33824,0.00495
1413.27807,0.00481
1411.21790,0.00471
1409.15773,0.00474
1407.09756,0.00471
1405.03738,0.00449
1402.97721,0.00417
1400.91704,0.00387
1398.85687,0.00368
1396.79670,0.00358
1394.73652,0.00350
1392.67635,0.00344
1390.61618,0.00341
1388.55601,0.00352
1386.49583,0.00377
1384.43566,0.00393
1382.37549,0.00394
1380.31532,0.00394
1378.25515,0.00407
1376.19497,0.00423
1374.13480,0.00420
1372.07463,0.00401
1370.01446,0.00385
1367.95429,0.00377
1365.89411,0.00368
1363.83394,0.00349
1361.77377,0.00331
1359.71360,0.00333
1357.65343,0.00346
1355.59325,0.00350
1353.53308,0.00333
1351.47291,0.00306
1349.41274,0.00289
1347.35256,0.00281
1345.29239,0.00273
1343.23222,0.00265
1341.17205,0.00260
1339.11188,0.00266
1337.05170,0.00280
1334.99153,0.00282
1332.93136,0.00264
1330.87119,0.00250
1328.81102,0.00257
1326.75084,0.00264
1324.69067,0.00259
1322.63050,0.00252
1320.57033,0.00253
1318.51015,0.00256
1316.44998,0.00246
1314.38981,0.00227
1312.32964,0.00220
1310.26947,0.00239
1308.20929,0.00264
1306.14912,0.00270
1304.08895,0.00265
1302.02878,0.00267
1299.96861,0.00267
1297.90843,0.00265
1295.84826,0.00271
1293.78809,0.00286
1291.72792,0.00307
1289.66775,0.00330
1287.60757,0.00343
1285.54740,0.00348
1283.48723,0.00353
1281.42706,0.00351
1279.36688,0.00341
1277.30671,0.00338
1275.24654,0.00343
1273.18637,0.00351
1271.12620,0.00360
1269.06602,0.00372
1267.00585,0.00382
1264.94568,0.00384
1262.88551,0.00378
1260.82534,0.00383
1258.76516,0.00390
1256.70499,0.00378
1254.64482,0.00346
1252.58465,0.00322
1250.52447,0.00317
1248.46430,0.00317
1246.40413,0.00303
1244.34396,0.00283
1242.28379,0.00277
1240.22361,0.00269
1238.16344,0.00243
1236.10327,0.00216
1234.04310,0.00200
1231.98293,0.00194
1229.92275,0.00192
1227.86258,0.00187
1225.80241,0.00174
1223.74224,0.00146
1221.68207,0.00116
1219.62189,0.00093
1217.56172,0.00068
1215.50155,0.00040
1213.44138,0.00014
1211.38120,0.00000
1209.32103,-0.00007
1207.26086,-0.00013
1205.20069,-0.00013
1203.14052,-0.00005
1201.08034,0.00005
1199.02017,0.00025
1196.96000,0.00061
1194.89983,0.00106
1192.83966,0.00147
1190.77948,0.00178
1188.71931,0.00212
1186.65914,0.00260
1184.59897,0.00332
1182.53880,0.00428
1180.47862,0.00528
1178.41845,0.00631
1176.35828,0.00746
1174.29811,0.00861
1172.23793,0.00965
1170.17776,0.01071
1168.11759,0.01188
1166.05742,0.01299
1163.99725,0.01399
1161.93707,0.01492
1159.87690,0.01587
1157.81673,0.01678
1155.75656,0.01758
1153.69639,0.01840
1151.63621,0.01936
1149.57604,0.02040
1147.51587,0.02147
1145.45570,0.02268
1143.39552,0.02408
1141.33535,0.02558
1139.27518,0.02699
1137.21501,0.02836
1135.15484,0.02971
1133.09466,0.03096
1131.03449,0.03220
1128.97432,0.03340
1126.91415,0.03440
1124.85398,0.03545
1122.79380,0.03676
1120.73363,0.03819
1118.67346,0.03955
1116.61329,0.04084
1114.55312,0.04227
1112.49294,0.04385
1110.43277,0.04529
1108.37260,0.04658
1106.31243,0.04809
1104.25225,0.04989
1102.19208,0.05162
1100.13191,0.05325
1098.07174,0.05491
1096.01157,0.05646
1093.95139,0.05789
1091.89122,0.05924
1089.83105,0.06049
1087.77088,0.06179
1085.71071,0.06316
1083.65053,0.06453
1081.59036,0.06590
1079.53019,0.06728
1077.47002,0.06851
1075.40985,0.06940
1073.34967,0.07006
1071.28950,0.07070
1069.22933,0.07128
1067.16916,0.07168
1065.10898,0.07191
1063.04881,0.07196
1060.98864,0.07186
1058.92847,0.07162
1056.86830,0.07133
1054.80812,0.07107
1052.74795,0.07064
1050.68778,0.06987
1048.62761,0.06905
1046.56744,0.06825
1044.50726,0.06717
1042.44709,0.06579
1040.38692,0.06436
1038.32675,0.06314
1036.26657,0.06202
1034.20640,0.06066
1032.14623,0.05906
1030.08606,0.05746
1028.02589,0.05610
1025.96571,0.05493
1023.90554,0.05374
1021.84537,0.05245
1019.78520,0.05129
1017.72503,0.05029
1015.66485,0.04903
1013.60468,0.04756
1011.54451,0.04642
1009.48434,0.04562
1007.42417,0.04494
1005.36399,0.04429
1003.30382,0.04384
1001.24365,0.04385
999.18348,0.04421
997.12330,0.04480
995.06313,0.04562
993.00296,0.04651
990.94279,0.04732
988.88262,0.04794
986.82244,0.04843
984.76227,0.04883
982.70210,0.04898
980.64193,0.04867
978.58176,0.04766
976.52158,0.04619
974.46141,0.04475
972.40124,0.04335
970.34107,0.04167
968.28089,0.03974
966.22072,0.03788
964.16055,0.03599
962.10038,0.03400
960.04021,0.03235
957.98003,0.03088
955.91986,0.02927
953.85969,0.02782
951.79952,0.02670
949.73935,0.02586
947.67917,0.02540
945.61900,0.02515
943.55883,0.02488
941.49866,0.02464
939.43849,0.02443
937.37831,0.02425
935.31814,0.02424
933.25797,0.02434
931.19780,0.02439
929.13762,0.02431
927.07745,0.02415
925.01728,0.02385
922.95711,0.02318
920.89694,0.02223
918.83676,0.02136
916.77659,0.02073
914.71642,0.02009
912.65625,0.01912
910.59608,0.01808
908.53590,0.01742
906.47573,0.01729
904.41556,0.01733
902.35539,0.01733
900.29522,0.01731
898.23504,0.01713
896.17487,0.01689
894.11470,0.01688
892.05453,0.01696
889.99435,0.01699
887.93418,0.01725
885.87401,0.01783
883.81384,0.01846
881.75367,0.01896
879.69349,0.01940
877.63332,0.01991
875.57315,0.02073
873.51298,0.02160
871.45281,0.02192
869.39263,0.02178
867.33246,0.02178
865.27229,0.02201
863.21212,0.02211
861.15194,0.02195
859.09177,0.02166
857.03160,0.02135
854.97143,0.02098
852.91126,0.02041
850.85108,0.01966
848.79091,0.01899
846.73074,0.01847
844.67057,0.01775
842.61040,0.01680
840.55022,0.01598
838.49005,0.01530
836.42988,0.01462
834.36971,0.01414
832.30954,0.01389
830.24936,0.01344
828.18919,0.01262
826.12902,0.01169
824.06885,0.01087
822.00867,0.01032
819.94850,0.01007
817.88833,0.00971
815.82816,0.00907
813.76799,0.00861
811.70781,0.00838
809.64764,0.00823
807.58747,0.00822
805.52730,0.00807
803.46713,0.00759
801.40695,0.00701
799.34678,0.00642
797.28661,0.00595
795.22644,0.00548
793.16627,0.00504
791.10609,0.00501
789.04592,0.00513
786.98575,0.00501
784.92558,0.00488
782.86540,0.00462
780.80523,0.00427
778.74506,0.00425
776.68489,0.00442
774.62472,0.00413
772.56454,0.00369
770.50437,0.00405
768.44420,0.00481
766.38403,0.00541
764.32386,0.00561
762.26368,0.00506
760.20351,0.00418
758.14334,0.00351
756.08317,0.00326
754.02299,0.00344
751.96282,0.00350
749.90265,0.00326
747.84248,0.00318
745.78231,0.00312
743.72213,0.00270
741.66196,0.00208
739.60179,0.00174
737.54162,0.00176
735.48145,0.00170
733.42127,0.00159
731.36110,0.00175
729.30093,0.00196
727.24076,0.00180
725.18059,0.00154
723.12041,0.00165
721.06024,0.00202
719.00007,0.00222
716.93990,0.00240
714.87972,0.00249
712.81955,0.00250
710.75938,0.00281
708.69921,0.00337
706.63904,0.00351
704.57886,0.00321
702.51869,0.00296
700.45852,0.00242
698.39835,0.00135
696.33818,0.00052
694.27800,0.00059
692.21783,0.00144
690.15766,0.00260
688.09749,0.00329
686.03731,0.00295
683.97714,0.00193
681.91697,0.00141
679.85680,0.00215
677.79663,0.00317
675.73645,0.00319
673.67628,0.00210
671.61611,0.00073
669.55594,0.00237
667.49577,0.00487
665.43559,0.00217
663.37542,0.00180
661.31525,0.00195
659.25508,0.00232
657.19491,0.00357
655.13473,0.00465
653.07456,0.00417
651.01439,0.00329
648.95422,0.00345
646.89404,0.00391
644.83387,0.00400
642.77370,0.00343
640.71353,0.00228
638.65336,0.00153
636.59318,0.00193
634.53301,0.00280
632.47284,0.00360
630.41267,0.00444
628.35250,0.00502
626.29232,0.00439
624.23215,0.00280
622.17198,0.00249
620.11181,0.00357
618.05164,0.00525
615.99146,0.00688
613.93129,0.00590
611.87112,0.00305
609.81095,0.00074
607.75077,0.00000
605.69060,0.00059
603.63043,0.00223
601.57026,0.00210
599.51009,0.00000
