3996.73391,-0.00167
3994.67373,-0.00144
3992.61356,-0.00120
3990.55339,-0.00116
3988.49322,-0.00125
3986.43305,-0.00134
3984.37287,-0.00147
3982.31270,-0.00131
3980.25253,-0.00082
3978.19236,-0.00060
3976.13219,-0.00060
3974.07201,-0.00030
3972.01184,0.00024
3969.95167,0.00065
3967.89150,0.00076
3965.83133,0.00078
3963.77115,0.00087
3961.71098,0.00085
3959.65081,0.00070
3957.59064,0.00073
3955.53046,0.00086
3953.47029,0.00066
3951.41012,0.00022
3949.34995,-0.00004
3947.28978,0.00000
3945.22960,0.00006
3943.16943,0.00000
3941.10926,0.00009
3939.04909,0.00056
3936.98892,0.00089
3934.92874,0.00085
3932.86857,0.00080
3930.80840,0.00094
3928.74823,0.00114
3926.68805,0.00129
3924.62788,0.00151
3922.56771,0.00172
3920.50754,0.00175
3918.44737,0.00165
3916.38719,0.00154
3914.32702,0.00162
3912.26685,0.00181
3910.20668,0.00164
3908.14651,0.00105
3906.08633,0.00047
3904.02616,0.00021
3901.96599,0.00033
3899.90582,0.00069
3897.84565,0.00099
3895.78547,0.00100
3893.72530,0.00066
3891.66513,0.00039
3889.60496,0.00067
3887.54478,0.00119
3885.48461,0.00156
3883.42444,0.00166
3881.36427,0.00143
3879.30410,0.00112
3877.24392,0.00095
3875.18375,0.00090
3873.12358,0.00097
3871.06341,0.00120
3869.00324,0.00157
3866.94306,0.00175
3864.88289,0.00170
3862.82272,0.00168
3860.76255,0.00148
3858.70237,0.00075
3856.64220,-0.00002
3854.58203,0.00013
3852.52186,0.00112
3850.46169,0.00147
3848.40151,0.00099
3846.34134,0.00032
3844.28117,0.00000
3842.22100,0.00030
3840.16083,0.00111
3838.10065,0.00188
3836.04048,0.00201
3833.98031,0.00173
3831.92014,0.00157
3829.85997,0.00152
3827.79979,0.00149
3825.73962,0.00152
3823.67945,0.00152
3821.61928,0.00162
3819.55910,0.00203
3817.49893,0.00235
3815.43876,0.00239
3813.37859,0.00230
3811.31842,0.00207
3809.25824,0.00152
3807.19807,0.00087
3805.13790,0.00062
3803.07773,0.00070
3801.01756,0.00089
3798.95738,0.00107
3796.89721,0.00130
3794.83704,0.00163
3792.77687,0.00175
3790.71670,0.00152
3788.65652,0.00131
3786.59635,0.00146
3784.53618,0.00180
3782.47601,0.00188
3780.41583,0.00170
3778.35566,0.00169
3776.29549,0.00184
3774.23532,0.00188
3772.17515,0.00184
3770.11497,0.00190
3768.05480,0.00204
3765.99463,0.00214
3763.93446,0.00197
3761.87429,0.00148
3759.81411,0.00092
3757.75394,0.00061
3755.69377,0.00054
3753.63360,0.00065
3751.57342,0.00104
3749.51325,0.00130
3747.45308,0.00112
3745.39291,0.00113
3743.33274,0.00144
3741.27256,0.00149
3739.21239,0.00133
3737.15222,0.00099
3735.09205,0.00046
3733.03188,0.00020
3730.97170,0.00031
3728.91153,0.00071
3726.85136,0.00104
3724.79119,0.00081
3722.73102,0.00036
3720.67084,0.00023
3718.61067,0.00053
3716.55050,0.00086
3714.49033,0.00096
3712.43015,0.00078
3710.36998,0.00026
3708.30981,0.00000
3706.24964,0.00039
3704.18947,0.00137
3702.12929,0.00232
3700.06912,0.00250
3698.00895,0.00203
3695.94878,0.00141
3693.88861,0.00089
3691.82843,0.00082
3689.76826,0.00154
3687.70809,0.00222
3685.64792,0.00218
3683.58775,0.00165
3681.52757,0.00104
3679.46740,0.00066
3677.40723,0.00078
3675.34706,0.00134
3673.28688,0.00172
3671.22671,0.00162
3669.16654,0.00151
3667.10637,0.00164
3665.04620,0.00177
3662.98602,0.00189
3660.92585,0.00202
3658.86568,0.00211
3656.80551,0.00227
3654.74534,0.00255
3652.68516,0.00250
3650.62499,0.00187
3648.56482,0.00150
3646.50465,0.00219
3644.44447,0.00301
3642.38430,0.00345
3640.32413,0.00376
3638.26396,0.00368
3636.20379,0.00322
3634.14361,0.00299
3632.08344,0.00317
3630.02327,0.00358
3627.96310,0.00412
3625.90293,0.00457
3623.84275,0.00476
3621.78258,0.00484
3619.72241,0.00502
3617.66224,0.00532
3615.60207,0.00563
3613.54189,0.00604
3611.48172,0.00664
3609.42155,0.00693
3607.36138,0.00678
3605.30120,0.00650
3603.24103,0.00626
3601.18086,0.00635
3599.12069,0.00674
3597.06052,0.00723
3595.00034,0.00773
3592.94017,0.00809
3590.88000,0.00813
3588.81983,0.00820
3586.75966,0.00846
3584.69948,0.00874
3582.63931,0.00884
3580.57914,0.00900
3578.51897,0.00940
3576.45879,0.00983
3574.39862,0.01009
3572.33845,0.01019
3570.27828,0.01027
3568.21811,0.01053
3566.15793,0.01081
3564.09776,0.01072
3562.03759,0.01058
3559.97742,0.01088
3557.91725,0.01127
3555.85707,0.01121
3553.79690,0.01081
3551.73673,0.01066
3549.67656,0.01098
3547.61639,0.01131
3545.55621,0.01145
3543.49604,0.01179
3541.43587,0.01232
3539.37570,0.01285
3537.31552,0.01349
3535.25535,0.01416
3533.19518,0.01448
3531.13501,0.01424
3529.07484,0.01375
3527.01466,0.01357
3524.95449,0.01384
3522.89432,0.01423
3520.83415,0.01460
3518.77398,0.01489
3516.71380,0.01498
3514.65363,0.01488
3512.59346,0.01472
3510.53329,0.01462
3508.47312,0.01461
3506.41294,0.01484
3504.35277,0.01544
3502.29260,0.01608
3500.23243,0.01632
3498.17225,0.01631
3496.11208,0.01644
3494.05191,0.01657
3491.99174,0.01656
3489.93157,0.01662
3487.87139,0.01696
3485.81122,0.01744
3483.75105,0.01770
3481.69088,0.01784
3479.63071,0.01823
3477.57053,0.01868
3475.51036,0.01889
3473.45019,0.01886
3471.39002,0.01861
3469.32984,0.01838
3467.26967,0.01849
3465.20950,0.01885
3463.14933,0.01923
3461.08916,0.01954
3459.02898,0.01972
3456.96881,0.01960
3454.90864,0.01931
3452.84847,0.01923
3450.78830,0.01934
3448.72812,0.01951
3446.66795,0.01966
3444.60778,0.01974
3442.54761,0.02013
3440.48744,0.02064
3438.42726,0.02069
3436.36709,0.02071
3434.30692,0.02113
3432.24675,0.02132
3430.18657,0.02092
3428.12640,0.02034
3426.06623,0.02015
3424.00606,0.02056
3421.94589,0.02113
3419.88571,0.02139
3417.82554,0.02143
3415.76537,0.02152
3413.70520,0.02173
3411.64503,0.02185
3409.58485,0.02172
3407.52468,0.02169
3405.46451,0.02214
3403.40434,0.02258
3401.34416,0.02265
3399.28399,0.02269
3397.22382,0.02270
3395.16365,0.02272
3393.10348,0.02281
3391.04330,0.02294
3388.98313,0.02309
3386.92296,0.02311
3384.86279,0.02312
3382.80262,0.02326
3380.74244,0.02330
3378.68227,0.02321
3376.62210,0.02338
3374.56193,0.02390
3372.50176,0.02431
3370.44158,0.02424
3368.38141,0.02394
3366.32124,0.02389
3364.26107,0.02412
3362.20089,0.02426
3360.14072,0.02418
3358.08055,0.02405
3356.02038,0.02405
3353.96021,0.02421
3351.90003,0.02439
3349.83986,0.02454
3347.77969,0.02458
3345.71952,0.02440
3343.65935,0.02424
3341.59917,0.02432
3339.53900,0.02439
3337.47883,0.02433
3335.41866,0.02427
3333.35849,0.02441
3331.29831,0.02471
3329.23814,0.02479
3327.17797,0.02454
3325.11780,0.02424
3323.05762,0.02424
3320.99745,0.02450
3318.93728,0.02477
3316.87711,0.02503
3314.81694,0.02511
3312.75676,0.02484
3310.69659,0.02460
3308.63642,0.02466
3306.57625,0.02491
3304.51608,0.02510
3302.45590,0.02521
3300.39573,0.02538
3298.33556,0.02553
3296.27539,0.02555
3294.21521,0.02551
3292.15504,0.02549
3290.09487,0.02556
3288.03470,0.02574
3285.97453,0.02583
3283.91435,0.02563
3281.85418,0.02537
3279.79401,0.02528
3277.73384,0.02525
3275.67367,0.02534
3273.61349,0.02569
3271.55332,0.02602
3269.49315,0.02594
3267.43298,0.02569
3265.37281,0.02554
3263.31263,0.02540
3261.25246,0.02547
3259.19229,0.02575
3257.13212,0.02591
3255.07194,0.02591
3253.01177,0.02582
3250.95160,0.02570
3248.89143,0.02548
3246.83126,0.02530
3244.77108,0.02562
3242.71091,0.02610
3240.65074,0.02596
3238.59057,0.02557
3236.53040,0.02565
3234.47022,0.02591
3232.41005,0.02588
3230.34988,0.02554
3228.28971,0.02524
3226.22954,0.02531
3224.16936,0.02565
3222.10919,0.02602
3220.04902,0.02608
3217.98885,0.02579
3215.92867,0.02555
3213.86850,0.02559
3211.80833,0.02577
3209.74816,0.02572
3207.68799,0.02533
3205.62781,0.02517
3203.56764,0.02538
3201.50747,0.02562
3199.44730,0.02552
3197.38713,0.02508
3195.32695,0.02492
3193.26678,0.02522
3191.20661,0.02544
3189.14644,0.02532
3187.08626,0.02500
3185.02609,0.02472
3182.96592,0.02471
3180.90575,0.02482
3178.84558,0.02489
3176.78540,0.02506
3174.72523,0.02516
3172.66506,0.02499
3170.60489,0.02487
3168.54472,0.02488
3166.48454,0.02470
3164.42437,0.02436
3162.36420,0.02420
3160.30403,0.02437
3158.24386,0.02465
3156.18368,0.02458
3154.12351,0.02422
3152.06334,0.02409
3150.00317,0.02418
3147.94299,0.02440
3145.88282,0.02469
3143.82265,0.02475
3141.76248,0.02446
3139.70231,0.02402
3137.64213,0.02381
3135.58196,0.02402
3133.52179,0.02413
3131.46162,0.02389
3129.40145,0.02372
3127.34127,0.02369
3125.28110,0.02352
3123.22093,0.02321
3121.16076,0.02300
3119.10058,0.02298
3117.04041,0.02310
3114.98024,0.02319
3112.92007,0.02300
3110.85990,0.02280
3108.79972,0.02291
3106.73955,0.02305
3104.67938,0.02295
3102.61921,0.02283
3100.55904,0.02288
3098.49886,0.02294
3096.43869,0.02277
3094.37852,0.02248
3092.31835,0.02244
3090.25818,0.02255
3088.19800,0.02241
3086.13783,0.02205
3084.07766,0.02173
3082.01749,0.02168
3079.95731,0.02189
3077.89714,0.02210
3075.83697,0.02211
3073.77680,0.02192
3071.71663,0.02178
3069.65645,0.02187
3067.59628,0.02196
3065.53611,0.02174
3063.47594,0.02128
3061.41577,0.02099
3059.35559,0.02094
3057.29542,0.02073
3055.23525,0.02055
3053.17508,0.02070
3051.11491,0.02074
3049.05473,0.02046
3046.99456,0.02025
3044.93439,0.02022
3042.87422,0.02020
3040.81404,0.02003
3038.75387,0.01979
3036.69370,0.01963
3034.63353,0.01958
3032.57336,0.01948
3030.51318,0.01935
3028.45301,0.01940
3026.39284,0.01956
3024.33267,0.01956
3022.27250,0.01939
3020.21232,0.01919
3018.15215,0.01902
3016.09198,0.01895
3014.03181,0.01892
3011.97163,0.01872
3009.91146,0.01833
3007.85129,0.01799
3005.79112,0.01790
3003.73095,0.01799
3001.67077,0.01806
2999.61060,0.01809
2997.55043,0.01804
2995.49026,0.01790
2993.43009,0.01778
2991.36991,0.01770
2989.30974,0.01754
2987.24957,0.01738
2985.18940,0.01741
2983.12923,0.01752
2981.06905,0.01750
2979.00888,0.01743
2976.94871,0.01720
2974.88854,0.01669
2972.82836,0.01647
2970.76819,0.01677
2968.70802,0.01703
2966.64785,0.01691
2964.58768,0.01670
2962.52750,0.01675
2960.46733,0.01685
2958.40716,0.01678
2956.34699,0.01674
2954.28682,0.01689
2952.22664,0.01707
2950.16647,0.01703
2948.10630,0.01686
2946.04613,0.01686
2943.98596,0.01689
2941.92578,0.01673
2939.86561,0.01667
2937.80544,0.01683
2935.74527,0.01690
2933.68509,0.01680
2931.62492,0.01662
2929.56475,0.01649
2927.50458,0.01653
2925.44441,0.01676
2923.38423,0.01701
2921.32406,0.01697
2919.26389,0.01663
2917.20372,0.01639
2915.14355,0.01641
2913.08337,0.01647
2911.02320,0.01624
2908.96303,0.01592
2906.90286,0.01592
2904.84268,0.01606
2902.78251,0.01603
2900.72234,0.01588
2898.66217,0.01590
2896.60200,0.01604
2894.54182,0.01596
2892.48165,0.01575
2890.42148,0.01568
2888.36131,0.01564
2886.30114,0.01541
2884.24096,0.01520
2882.18079,0.01531
2880.12062,0.01550
2878.06045,0.01536
2876.00028,0.01516
2873.94010,0.01530
2871.87993,0.01547
2869.81976,0.01518
2867.75959,0.01466
2865.69941,0.01460
2863.63924,0.01491
2861.57907,0.01513
2859.51890,0.01522
2857.45873,0.01510
2855.39855,0.01487
2853.33838,0.01476
2851.27821,0.01475
2849.21804,0.01478
2847.15787,0.01475
2845.09769,0.01457
2843.03752,0.01438
2840.97735,0.01429
2838.91718,0.01428
2836.85700,0.01434
2834.79683,0.01439
2832.73666,0.01429
2830.67649,0.01409
2828.61632,0.01402
2826.55614,0.01404
2824.49597,0.01385
2822.43580,0.01345
2820.37563,0.01331
2818.31546,0.01359
2816.25528,0.01374
2814.19511,0.01362
2812.13494,0.01360
2810.07477,0.01369
2808.01460,0.01373
2805.95442,0.01357
2803.89425,0.01333
2801.83408,0.01321
2799.77391,0.01319
2797.71373,0.01307
2795.65356,0.01301
2793.59339,0.01317
2791.53322,0.01330
2789.47305,0.01326
2787.41287,0.01315
2785.35270,0.01309
2783.29253,0.01302
2781.23236,0.01282
2779.17219,0.01271
2777.11201,0.01276
2775.05184,0.01288
2772.99167,0.01300
2770.93150,0.01308
2768.87133,0.01312
2766.81115,0.01308
2764.75098,0.01282
2762.69081,0.01233
2760.63064,0.01194
2758.57046,0.01195
2756.51029,0.01211
2754.45012,0.01213
2752.38995,0.01200
2750.32978,0.01192
2748.26960,0.01198
2746.20943,0.01195
2744.14926,0.01180
2742.08909,0.01178
2740.02892,0.01186
2737.96874,0.01185
2735.90857,0.01181
2733.84840,0.01189
2731.78823,0.01187
2729.72805,0.01173
2727.66788,0.01175
2725.60771,0.01188
2723.54754,0.01192
2721.48737,0.01186
2719.42719,0.01176
2717.36702,0.01171
2715.30685,0.01169
2713.24668,0.01155
2711.18651,0.01138
2709.12633,0.01134
2707.06616,0.01149
2705.00599,0.01156
2702.94582,0.01120
2700.88565,0.01075
2698.82547,0.01069
2696.76530,0.01091
2694.70513,0.01101
2692.64496,0.01086
2690.58478,0.01065
2688.52461,0.01052
2686.46444,0.01052
2684.40427,0.01058
2682.34410,0.01059
2680.28392,0.01052
2678.22375,0.01037
2676.16358,0.01024
2674.10341,0.01015
2672.04324,0.01011
2669.98306,0.01015
2667.92289,0.01020
2665.86272,0.01017
2663.80255,0.01008
2661.74238,0.01001
2659.68220,0.01001
2657.62203,0.00988
2655.56186,0.00961
2653.50169,0.00960
2651.44151,0.00983
2649.38134,0.00988
2647.32117,0.00988
2645.26100,0.00988
2643.20083,0.00976
2641.14065,0.00968
2639.08048,0.00955
2637.02031,0.00920
2634.96014,0.00878
2632.89997,0.00863
2630.83979,0.00883
2628.77962,0.00890
2626.71945,0.00851
2624.65928,0.00816
2622.59910,0.00824
2620.53893,0.00845
2618.47876,0.00860
2616.41859,0.00868
2614.35842,0.00868
2612.29824,0.00854
2610.23807,0.00813
2608.17790,0.00781
2606.11773,0.00807
2604.05756,0.00848
2601.99738,0.00857
2599.93721,0.00839
2597.87704,0.00807
2595.81687,0.00790
2593.75670,0.00793
2591.69652,0.00789
2589.63635,0.00787
2587.57618,0.00805
2585.51601,0.00832
2583.45583,0.00839
2581.39566,0.00786
2579.33549,0.00718
2577.27532,0.00736
2575.21515,0.00806
2573.15497,0.00823
2571.09480,0.00772
2569.03463,0.00708
2566.97446,0.00687
2564.91429,0.00717
2562.85411,0.00763
2560.79394,0.00789
2558.73377,0.00768
2556.67360,0.00724
2554.61342,0.00713
2552.55325,0.00734
2550.49308,0.00753
2548.43291,0.00756
2546.37274,0.00748
2544.31256,0.00733
2542.25239,0.00722
2540.19222,0.00715
2538.13205,0.00711
2536.07188,0.00737
2534.01170,0.00789
2531.95153,0.00802
2529.89136,0.00766
2527.83119,0.00743
2525.77102,0.00761
2523.71084,0.00775
2521.65067,0.00759
2519.59050,0.00750
2517.53033,0.00765
2515.47015,0.00770
2513.40998,0.00760
2511.34981,0.00759
2509.28964,0.00782
2507.22947,0.00817
2505.16929,0.00827
2503.10912,0.00814
2501.04895,0.00811
2498.98878,0.00795
2496.92861,0.00752
2494.86843,0.00745
2492.80826,0.00774
2490.74809,0.00785
2488.68792,0.00783
2486.62775,0.00796
2484.56757,0.00812
2482.50740,0.00813
2480.44723,0.00800
2478.38706,0.00767
2476.32688,0.00734
2474.26671,0.00739
2472.20654,0.00759
2470.14637,0.00793
2468.08620,0.00867
2466.02602,0.00915
2463.96585,0.00883
2461.90568,0.00840
2459.84551,0.00827
2457.78534,0.00824
2455.72516,0.00825
2453.66499,0.00814
2451.60482,0.00778
2449.54465,0.00750
2447.48447,0.00777
2445.42430,0.00821
2443.36413,0.00840
2441.30396,0.00849
2439.24379,0.00845
2437.18361,0.00837
2435.12344,0.00833
2433.06327,0.00826
2431.00310,0.00833
2428.94293,0.00847
2426.88275,0.00831
2424.82258,0.00812
2422.76241,0.00801
2420.70224,0.00781
2418.64207,0.00781
2416.58189,0.00798
2414.52172,0.00813
2412.46155,0.00813
2410.40138,0.00811
2408.34120,0.00831
2406.28103,0.00866
2404.22086,0.00897
2402.16069,0.00885
2400.10052,0.00828
2398.04034,0.00800
2395.98017,0.00803
2393.92000,0.00788
2391.85983,0.00759
2389.79966,0.00753
2387.73948,0.00759
2385.67931,0.00748
2383.61914,0.00728
2381.55897,0.00724
2379.49880,0.00751
2377.43862,0.00801
2375.37845,0.00851
2373.31828,0.00808
2371.25811,0.00723
2369.19793,0.00757
2367.13776,0.00878
2365.07759,0.00913
2363.01742,0.00829
2360.95725,0.00445
2358.89707,0.00374
2356.83690,0.00698
2354.77673,0.01034
2352.71656,0.01074
2350.65639,0.00641
2348.59621,0.00422
2346.53604,0.00954
2344.47587,0.01093
2342.41570,0.00995
2340.35552,0.00918
2338.29535,0.00880
2336.23518,0.00926
2334.17501,0.00945
2332.11484,0.00956
2330.05466,0.00957
2327.99449,0.01055
2325.93432,0.01062
2323.87415,0.01057
2321.81398,0.00975
2319.75380,0.00914
2317.69363,0.00815
2315.63346,0.00827
2313.57329,0.00905
2311.51312,0.00952
2309.45294,0.00941
2307.39277,0.00862
2305.33260,0.00753
2303.27243,0.00678
2301.21225,0.00691
2299.15208,0.00719
2297.09191,0.00739
2295.03174,0.00758
2292.97157,0.00760
2290.91139,0.00753
2288.85122,0.00762
2286.79105,0.00785
2284.73088,0.00797
2282.67071,0.00790
2280.61053,0.00770
2278.55036,0.00763
2276.49019,0.00775
2274.43002,0.00755
2272.36984,0.00719
2270.30967,0.00703
2268.24950,0.00690
2266.18933,0.00664
2264.12916,0.00657
2262.06898,0.00705
2260.00881,0.00769
2257.94864,0.00777
2255.88847,0.00762
2253.82830,0.00756
2251.76812,0.00773
2249.70795,0.00805
2247.64778,0.00743
2245.58761,0.00617
2243.52744,0.00617
2241.46726,0.00690
2239.40709,0.00702
2237.34692,0.00716
2235.28675,0.00753
2233.22657,0.00764
2231.16640,0.00721
2229.10623,0.00601
2227.04606,0.00481
2224.98589,0.00430
2222.92571,0.00460
2220.86554,0.00551
2218.80537,0.00621
2216.74520,0.00639
2214.68503,0.00600
2212.62485,0.00556
2210.56468,0.00561
2208.50451,0.00549
2206.44434,0.00548
2204.38417,0.00580
2202.32399,0.00570
2200.26382,0.00563
2198.20365,0.00573
2196.14348,0.00549
2194.08330,0.00544
2192.02313,0.00609
2189.96296,0.00650
2187.90279,0.00589
2185.84262,0.00500
2183.78244,0.00473
2181.72227,0.00530
2179.66210,0.00586
2177.60193,0.00570
2175.54176,0.00552
2173.48158,0.00544
2171.42141,0.00460
2169.36124,0.00417
2167.30107,0.00545
2165.24089,0.00677
2163.18072,0.00685
2161.12055,0.00576
2159.06038,0.00403
2157.00021,0.00336
2154.94003,0.00371
2152.87986,0.00367
2150.81969,0.00393
2148.75952,0.00514
2146.69935,0.00579
2144.63917,0.00497
2142.57900,0.00384
2140.51883,0.00359
2138.45866,0.00388
2136.39849,0.00366
2134.33831,0.00317
2132.27814,0.00316
2130.21797,0.00333
2128.15780,0.00360
2126.09762,0.00404
2124.03745,0.00441
2121.97728,0.00470
2119.91711,0.00462
2117.85694,0.00453
2115.79676,0.00549
2113.73659,0.00648
2111.67642,0.00621
2109.61625,0.00546
2107.55608,0.00471
2105.49590,0.00404
2103.43573,0.00445
2101.37556,0.00590
2099.31539,0.00658
2097.25521,0.00586
2095.19504,0.00503
2093.13487,0.00500
2091.07470,0.00508
2089.01453,0.00472
2086.95435,0.00435
2084.89418,0.00454
2082.83401,0.00486
2080.77384,0.00461
2078.71367,0.00402
2076.65349,0.00331
2074.59332,0.00273
2072.53315,0.00272
2070.47298,0.00301
2068.41281,0.00328
2066.35263,0.00351
2064.29246,0.00374
2062.23229,0.00418
2060.17212,0.00474
2058.11194,0.00470
2056.05177,0.00394
2053.99160,0.00380
2051.93143,0.00435
2049.87126,0.00423
2047.81108,0.00388
2045.75091,0.00406
2043.69074,0.00367
2041.63057,0.00306
2039.57040,0.00412
2037.51022,0.00551
2035.45005,0.00490
2033.38988,0.00343
2031.32971,0.00235
2029.26954,0.00168
2027.20936,0.00196
2025.14919,0.00277
2023.08902,0.00329
2021.02885,0.00369
2018.96867,0.00470
2016.90850,0.00640
2014.84833,0.00698
2012.78816,0.00533
2010.72799,0.00290
2008.66781,0.00159
2006.60764,0.00179
2004.54747,0.00250
2002.48730,0.00314
2000.42713,0.00396
1998.36695,0.00500
1996.30678,0.00549
1994.24661,0.00538
1992.18644,0.00578
1990.12626,0.00644
1988.06609,0.00608
1986.00592,0.00491
1983.94575,0.00382
1981.88558,0.00305
1979.82540,0.00245
1977.76523,0.00207
1975.70506,0.00218
1973.64489,0.00219
1971.58472,0.00190
1969.52454,0.00191
1967.46437,0.00197
1965.40420,0.00144
1963.34403,0.00056
1961.28386,0.00000
1959.22368,0.00010
1957.16351,0.00085
1955.10334,0.00174
1953.04317,0.00242
1950.98299,0.00281
1948.92282,0.00324
1946.86265,0.00385
1944.80248,0.00406
1942.74231,0.00416
1940.68213,0.00466
1938.62196,0.00478
1936.56179,0.00404
1934.50162,0.00299
1932.44145,0.00238
1930.38127,0.00240
1928.32110,0.00254
1926.26093,0.00234
1924.20076,0.00188
1922.14059,0.00177
1920.08041,0.00237
1918.02024,0.00305
1915.96007,0.00315
1913.89990,0.00277
1911.83972,0.00231
1909.77955,0.00220
1907.71938,0.00259
1905.65921,0.00310
1903.59904,0.00324
1901.53886,0.00280
1899.47869,0.00225
1897.41852,0.00215
1895.35835,0.00241
1893.29818,0.00268
1891.23800,0.00281
1889.17783,0.00289
1887.11766,0.00288
1885.05749,0.00284
1882.99731,0.00287
1880.93714,0.00285
1878.87697,0.00276
1876.81680,0.00274
1874.75663,0.00271
1872.69645,0.00249
1870.63628,0.00241
1868.57611,0.00284
1866.51594,0.00346
1864.45577,0.00365
1862.39559,0.00340
1860.33542,0.00324
1858.27525,0.00349
1856.21508,0.00389
1854.15491,0.00392
1852.09473,0.00351
1850.03456,0.00317
1847.97439,0.00309
1845.91422,0.00301
1843.85404,0.00290
1841.79387,0.00279
1839.73370,0.00270
1837.67353,0.00286
1835.61336,0.00325
1833.55318,0.00349
1831.49301,0.00342
1829.43284,0.00320
1827.37267,0.00305
1825.31250,0.00299
1823.25232,0.00301
1821.19215,0.00313
1819.13198,0.00325
1817.07181,0.00315
1815.01163,0.00295
1812.95146,0.00300
1810.89129,0.00338
1808.83112,0.00369
1806.77095,0.00348
1804.71077,0.00295
1802.65060,0.00265
1800.59043,0.00270
1798.53026,0.00290
1796.47009,0.00314
1794.40991,0.00334
1792.34974,0.00339
1790.28957,0.00332
1788.22940,0.00321
1786.16923,0.00312
1784.10905,0.00312
1782.04888,0.00320
1779.98871,0.00326
1777.92854,0.00331
1775.86836,0.00330
1773.80819,0.00318
1771.74802,0.00313
1769.68785,0.00324
1767.62768,0.00337
1765.56750,0.00350
1763.50733,0.00352
1761.44716,0.00340
1759.38699,0.00335
1757.32682,0.00356
1755.26664,0.00405
1753.20647,0.00448
1751.14630,0.00441
1749.08613,0.00385
1747.02596,0.00347
1744.96578,0.00355
1742.90561,0.00393
1740.84544,0.00440
1738.78527,0.00471
1736.72509,0.00469
1734.66492,0.00461
1732.60475,0.00484
1730.54458,0.00512
1728.48441,0.00520
1726.42423,0.00516
1724.36406,0.00522
1722.30389,0.00551
1720.24372,0.00584
1718.18355,0.00585
1716.12337,0.00549
1714.06320,0.00528
1712.00303,0.00540
1709.94286,0.00561
1707.88268,0.00577
1705.82251,0.00610
1703.76234,0.00665
1701.70217,0.00709
1699.64200,0.00718
1697.58182,0.00698
1695.52165,0.00685
1693.46148,0.00693
1691.40131,0.00713
1689.34114,0.00731
1687.28096,0.00737
1685.22079,0.00732
1683.16062,0.00737
1681.10045,0.00762
1679.04028,0.00785
1676.98010,0.00792
1674.91993,0.00791
1672.85976,0.00801
1670.79959,0.00828
1668.73941,0.00854
1666.67924,0.00867
1664.61907,0.00885
1662.55890,0.00923
1660.49873,0.00962
1658.43855,0.00974
1656.37838,0.00968
1654.31821,0.00973
1652.25804,0.00986
1650.19787,0.00973
1648.13769,0.00946
1646.07752,0.00936
1644.01735,0.00946
1641.95718,0.00965
1639.89701,0.00973
1637.83683,0.00942
1635.77666,0.00904
1633.71649,0.00915
1631.65632,0.00938
1629.59614,0.00937
1627.53597,0.00915
1625.47580,0.00890
1623.41563,0.00884
1621.35546,0.00890
1619.29528,0.00881
1617.23511,0.00865
1615.17494,0.00871
1613.11477,0.00886
1611.05460,0.00887
1608.99442,0.00870
1606.93425,0.00839
1604.87408,0.00809
1602.81391,0.00790
1600.75373,0.00775
1598.69356,0.00749
1596.63339,0.00718
1594.57322,0.00696
1592.51305,0.00677
1590.45287,0.00656
1588.39270,0.00641
1586.33253,0.00629
1584.27236,0.00611
1582.21219,0.00593
1580.15201,0.00576
1578.09184,0.00555
1576.03167,0.00537
1573.97150,0.00527
1571.91133,0.00512
1569.85115,0.00481
1567.79098,0.00444
1565.73081,0.00420
1563.67064,0.00408
1561.61046,0.00387
1559.55029,0.00351
1557.49012,0.00337
1555.42995,0.00344
1553.36978,0.00344
1551.30960,0.00340
1549.24943,0.00334
1547.18926,0.00312
1545.12909,0.00266
1543.06892,0.00221
1541.00874,0.00225
1538.94857,0.00279
1536.88840,0.00308
1534.82823,0.00298
1532.76805,0.00273
1530.70788,0.00251
1528.64771,0.00228
1526.58754,0.00201
1524.52737,0.00171
1522.46719,0.00153
1520.40702,0.00164
1518.34685,0.00187
1516.28668,0.00196
1514.22651,0.00195
1512.16633,0.00189
1510.10616,0.00185
1508.04599,0.00188
1505.98582,0.00201
1503.92565,0.00215
1501.86547,0.00223
1499.80530,0.00221
1497.74513,0.00209
1495.68496,0.00192
1493.62478,0.00171
1491.56461,0.00141
1489.50444,0.00118
1487.44427,0.00118
1485.38410,0.00126
1483.32392,0.00140
1481.26375,0.00159
1479.20358,0.00166
1477.14341,0.00154
1475.08324,0.00143
1473.02306,0.00153
1470.96289,0.00177
1468.90272,0.00179
1466.84255,0.00169
1464.78238,0.00187
1462.72220,0.00224
1460.66203,0.00223
1458.60186,0.00180
1456.54169,0.00167
1454.48151,0.00211
1452.42134,0.00258
1450.36117,0.00283
1448.30100,0.00287
1446.24083,0.00283
1444.18065,0.00276
1442.12048,0.00262
1440.06031,0.00236
1438.00014,0.00205
1435.93997,0.00191
1433.87979,0.00193
1431.81962,0.00191
1429.75945,0.00189
1427.69928,0.00187
1425.63910,0.00178
1423.57893,0.00167
1421.51876,0.00160
1419.45859,0.00158
1417.39842,0.00172
1415.33824,0.00202
1413.27807,0.00228
1411.21790,0.00233
1409.15773,0.00218
1407.09756,0.00193
1405.03738,0.00172
1402.97721,0.00162
1400.91704,0.00151
1398.85687,0.00145
1396.79670,0.00161
1394.73652,0.00193
1392.67635,0.00215
1390.61618,0.00221
1388.55601,0.00223
1386.49583,0.00223
1384.43566,0.00230
1382.37549,0.00241
1380.31532,0.00249
1378.25515,0.00259
1376.19497,0.00269
1374.13480,0.00266
1372.07463,0.00260
1370.01446,0.00263
1367.95429,0.00268
1365.89411,0.00265
1363.83394,0.00258
1361.77377,0.00260
1359.71360,0.00260
1357.65343,0.00249
1355.59325,0.00234
1353.53308,0.00227
1351.47291,0.00227
1349.41274,0.00231
1347.35256,0.00236
1345.29239,0.00240
1343.23222,0.00235
1341.17205,0.00225
1339.11188,0.00229
1337.05170,0.00244
1334.99153,0.00251
1332.93136,0.00248
1330.87119,0.00239
1328.81102,0.00230
1326.75084,0.00219
1324.69067,0.00211
1322.63050,0.00210
1320.57033,0.00208
1318.51015,0.00208
1316.44998,0.00211
1314.38981,0.00205
1312.32964,0.00187
1310.26947,0.00167
1308.20929,0.00154
1306.14912,0.00153
1304.08895,0.00159
1302.02878,0.00166
1299.96861,0.00173
1297.90843,0.00183
1295.84826,0.00187
1293.78809,0.00176
1291.72792,0.00166
1289.66775,0.00170
1287.60757,0.00175
1285.54740,0.00176
1283.48723,0.00169
1281.42706,0.00162
1279.36688,0.00167
1277.30671,0.00178
1275.24654,0.00183
1273.18637,0.00187
1271.12620,0.00191
1269.06602,0.00190
1267.00585,0.00194
1264.94568,0.00203
1262.88551,0.00195
1260.82534,0.00185
1258.76516,0.00192
1256.70499,0.00193
1254.64482,0.00179
1252.58465,0.00165
1250.52447,0.00160
1248.46430,0.00154
1246.40413,0.00140
1244.34396,0.00133
1242.28379,0.00141
1240.22361,0.00137
1238.16344,0.00116
1236.10327,0.00114
1234.04310,0.00139
1231.98293,0.00156
1229.92275,0.00149
1227.86258,0.00134
1225.80241,0.00114
1223.74224,0.00090
1221.68207,0.00077
1219.62189,0.00078
1217.56172,0.00085
1215.50155,0.00101
1213.44138,0.00113
1211.38120,0.00108
1209.32103,0.00085
1207.26086,0.00063
1205.20069,0.00051
1203.14052,0.00051
1201.08034,0.00077
1199.02017,0.00114
1196.96000,0.00124
1194.89983,0.00113
1192.83966,0.00108
1190.77948,0.00124
1188.71931,0.00159
1186.65914,0.00187
1184.59897,0.00196
1182.53880,0.00211
1180.47862,0.00250
1178.41845,0.00310
1176.35828,0.00367
1174.29811,0.00409
1172.23793,0.00445
1170.17776,0.00478
1168.11759,0.00512
1166.05742,0.00554
1163.99725,0.00600
1161.93707,0.00641
1159.87690,0.00679
1157.81673,0.00720
1155.75656,0.00766
1153.69639,0.00803
1151.63621,0.00841
1149.57604,0.00892
1147.51587,0.00937
1145.45570,0.00981
1143.39552,0.01039
1141.33535,0.01101
1139.27518,0.01159
1137.21501,0.01210
1135.15484,0.01250
1133.09466,0.01292
1131.03449,0.01347
1128.97432,0.01416
1126.91415,0.01496
1124.85398,0.01565
1122.79380,0.01610
1120.73363,0.01649
1118.67346,0.01710
1116.61329,0.01792
1114.55312,0.01874
1112.49294,0.01941
1110.43277,0.01994
1108.37260,0.02055
1106.31243,0.02135
1104.25225,0.02223
1102.19208,0.02306
1100.13191,0.02375
1098.07174,0.02427
1096.01157,0.02467
1093.95139,0.02505
1091.89122,0.02550
1089.83105,0.02608
1087.77088,0.02682
1085.71071,0.02778
1083.65053,0.02879
1081.59036,0.02954
1079.53019,0.03005
1077.47002,0.03035
1075.40985,0.03042
1073.34967,0.03052
1071.28950,0.03072
1069.22933,0.03096
1067.16916,0.03136
1065.10898,0.03171
1063.04881,0.03179
1060.98864,0.03169
1058.92847,0.03163
1056.86830,0.03169
1054.80812,0.03174
1052.74795,0.03171
1050.68778,0.03158
1048.62761,0.03127
1046.56744,0.03081
1044.50726,0.03018
1042.44709,0.02942
1040.38692,0.02881
1038.32675,0.02841
1036.26657,0.02799
1034.20640,0.02752
1032.14623,0.02698
1030.08606,0.02633
1028.02589,0.02565
1025.96571,0.02498
1023.90554,0.02437
1021.84537,0.02384
1019.78520,0.02331
1017.72503,0.02274
1015.66485,0.02211
1013.60468,0.02153
1011.54451,0.02138
1009.48434,0.02164
1007.42417,0.02167
1005.36399,0.02134
1003.30382,0.02116
1001.24365,0.02126
999.18348,0.02147
997.12330,0.02164
995.06313,0.02175
993.00296,0.02201
990.94279,0.02255
988.88262,0.02310
986.82244,0.02342
984.76227,0.02352
982.70210,0.02356
980.64193,0.02362
978.58176,0.02359
976.52158,0.02351
974.46141,0.02327
972.40124,0.02256
970.34107,0.02141
968.28089,0.02026
966.22072,0.01963
964.16055,0.01945
962.10038,0.01909
960.04021,0.01833
957.98003,0.01750
955.91986,0.01675
953.85969,0.01606
951.79952,0.01555
949.73935,0.01522
947.67917,0.01503
945.61900,0.01502
943.55883,0.01493
941.49866,0.01467
939.43849,0.01468
937.37831,0.01495
935.31814,0.01513
933.25797,0.01505
931.19780,0.01472
929.13762,0.01423
927.07745,0.01377
925.01728,0.01362
922.95711,0.01384
920.89694,0.01413
918.83676,0.01401
916.77659,0.01352
914.71642,0.01315
912.65625,0.01288
910.59608,0.01241
908.53590,0.01186
906.47573,0.01173
904.41556,0.01185
902.35539,0.01185
900.29522,0.01190
898.23504,0.01188
896.17487,0.01180
894.11470,0.01176
892.05453,0.01167
889.99435,0.01182
887.93418,0.01217
885.87401,0.01220
883.81384,0.01212
881.75367,0.01229
879.69349,0.01272
877.63332,0.01338
875.57315,0.01370
873.51298,0.01362
871.45281,0.01374
869.39263,0.01394
867.33246,0.01390
865.27229,0.01378
863.21212,0.01379
861.15194,0.01400
859.09177,0.01412
857.03160,0.01387
854.97143,0.01350
852.91126,0.01326
850.85108,0.01329
848.79091,0.01331
846.73074,0.01283
844.67057,0.01226
842.61040,0.01194
840.55022,0.01164
838.49005,0.01143
836.42988,0.01135
834.36971,0.01116
832.30954,0.01086
830.24936,0.01047
828.18919,0.01015
826.12902,0.00988
824.06885,0.00948
822.00867,0.00914
819.94850,0.00898
817.88833,0.00886
815.82816,0.00841
813.76799,0.00779
811.70781,0.00737
809.64764,0.00722
807.58747,0.00726
805.52730,0.00707
803.46713,0.00669
801.40695,0.00667
799.34678,0.00669
797.28661,0.00637
795.22644,0.00620
793.16627,0.00634
791.10609,0.00674
789.04592,0.00699
786.98575,0.00672
784.92558,0.00635
782.86540,0.00608
780.80523,0.00619
778.74506,0.00626
776.68489,0.00579
774.62472,0.00543
772.56454,0.00538
770.50437,0.00545
768.44420,0.00576
766.38403,0.00612
764.32386,0.00596
762.26368,0.00541
760.20351,0.00506
758.14334,0.00516
756.08317,0.00538
754.02299,0.00522
751.96282,0.00473
749.90265,0.00440
747.84248,0.00476
745.78231,0.00528
743.72213,0.00530
741.66196,0.00514
739.60179,0.00506
737.54162,0.00493
735.48145,0.00483
733.42127,0.00463
731.36110,0.00425
729.30093,0.00421
727.24076,0.00469
725.18059,0.00539
723.12041,0.00552
721.06024,0.00576
719.00007,0.00518
716.93990,0.00487
714.87972,0.00520
712.81955,0.00556
710.75938,0.00548
708.69921,0.00486
706.63904,0.00425
704.57886,0.00402
702.51869,0.00387
700.45852,0.00332
698.39835,0.00260
696.33818,0.00252
694.27800,0.00301
692.21783,0.00324
690.15766,0.00332
688.09749,0.00366
686.03731,0.00358
683.97714,0.00279
681.91697,0.00221
679.85680,0.00222
677.79663,0.00265
675.73645,0.00354
673.67628,0.00326
671.61611,0.00128
669.55594,0.00542
667.49577,0.00933
665.43559,0.00000
663.37542,0.00128
661.31525,0.00409
659.25508,0.00434
657.19491,0.00372
655.13473,0.00301
653.07456,0.00205
651.01439,0.00102
648.95422,0.00039
646.89404,0.00040
644.83387,0.00186
642.77370,0.00317
640.71353,0.00299
638.65336,0.00176
636.59318,0.00074
634.53301,0.00083
632.47284,0.00174
630.41267,0.00258
628.35250,0.00285
626.29232,0.00246
624.23215,0.00266
622.17198,0.00266
620.11181,0.00027
618.05164,-0.00237
615.99146,-0.00212
613.93129,0.00012
611.87112,0.00206
609.81095,0.00252
607.75077,0.00214
605.69060,0.00110
603.63043,-0.00010
601.57026,-0.00042
599.51009,0.00000
