3996.73391,0.00009
3994.67373,0.00003
3992.61356,0.00021
3990.55339,0.00035
3988.49322,0.00025
3986.43305,0.00001
3984.37287,0.00000
3982.31270,0.00015
3980.25253,0.00007
3978.19236,0.00002
3976.13219,0.00033
3974.07201,0.00064
3972.01184,0.00068
3969.95167,0.00063
3967.89150,0.00063
3965.83133,0.00056
3963.77115,0.00043
3961.71098,0.00055
3959.65081,0.00095
3957.59064,0.00115
3955.53046,0.00085
3953.47029,0.00038
3951.41012,0.00026
3949.34995,0.00065
3947.28978,0.00111
3945.22960,0.00114
3943.16943,0.00091
3941.10926,0.00069
3939.04909,0.00038
3936.98892,0.00005
3934.92874,0.00003
3932.86857,0.00024
3930.80840,0.00042
3928.74823,0.00060
3926.68805,0.00073
3924.62788,0.00058
3922.56771,0.00032
3920.50754,0.00035
3918.44737,0.00062
3916.38719,0.00079
3914.32702,0.00079
3912.26685,0.00084
3910.20668,0.00109
3908.14651,0.00142
3906.08633,0.00152
3904.02616,0.00126
3901.96599,0.00094
3899.90582,0.00081
3897.84565,0.00088
3895.78547,0.00117
3893.72530,0.00153
3891.66513,0.00147
3889.60496,0.00102
3887.54478,0.00076
3885.48461,0.00078
3883.42444,0.00083
3881.36427,0.00082
3879.30410,0.00069
3877.24392,0.00054
3875.18375,0.00063
3873.12358,0.00098
3871.06341,0.00108
3869.00324,0.00066
3866.94306,0.00044
3864.88289,0.00086
3862.82272,0.00124
3860.76255,0.00098
3858.70237,0.00068
3856.64220,0.00110
3854.58203,0.00191
3852.52186,0.00204
3850.46169,0.00162
3848.40151,0.00145
3846.34134,0.00142
3844.28117,0.00119
3842.22100,0.00094
3840.16083,0.00108
3838.10065,0.00142
3836.04048,0.00144
3833.98031,0.00117
3831.92014,0.00109
3829.85997,0.00135
3827.79979,0.00155
3825.73962,0.00154
3823.67945,0.00163
3821.61928,0.00174
3819.55910,0.00150
3817.49893,0.00113
3815.43876,0.00089
3813.37859,0.00096
3811.31842,0.00127
3809.25824,0.00159
3807.19807,0.00176
3805.13790,0.00190
3803.07773,0.00197
3801.01756,0.00176
3798.95738,0.00148
3796.89721,0.00129
3794.83704,0.00107
3792.77687,0.00101
3790.71670,0.00118
3788.65652,0.00113
3786.59635,0.00076
3784.53618,0.00055
3782.47601,0.00077
3780.41583,0.00126
3778.35566,0.00163
3776.29549,0.00162
3774.23532,0.00150
3772.17515,0.00153
3770.11497,0.00168
3768.05480,0.00178
3765.99463,0.00170
3763.93446,0.00155
3761.87429,0.00153
3759.81411,0.00154
3757.75394,0.00148
3755.69377,0.00146
3753.63360,0.00157
3751.57342,0.00179
3749.51325,0.00187
3747.45308,0.00174
3745.39291,0.00158
3743.33274,0.00137
3741.27256,0.00109
3739.21239,0.00105
3737.15222,0.00113
3735.09205,0.00065
3733.03188,0.00007
3730.97170,0.00039
3728.91153,0.00119
3726.85136,0.00178
3724.79119,0.00194
3722.73102,0.00183
3720.67084,0.00185
3718.61067,0.00210
3716.55050,0.00227
3714.49033,0.00202
3712.43015,0.00131
3710.36998,0.00068
3708.30981,0.00059
3706.24964,0.00075
3704.18947,0.00096
3702.12929,0.00128
3700.06912,0.00168
3698.00895,0.00188
3695.94878,0.00173
3693.88861,0.00140
3691.82843,0.00127
3689.76826,0.00163
3687.70809,0.00212
3685.64792,0.00209
3683.58775,0.00183
3681.52757,0.00174
3679.46740,0.00176
3677.40723,0.00177
3675.34706,0.00191
3673.28688,0.00216
3671.22671,0.00215
3669.16654,0.00201
3667.10637,0.00213
3665.04620,0.00261
3662.98602,0.00325
3660.92585,0.00366
3658.86568,0.00369
3656.80551,0.00359
3654.74534,0.00352
3652.68516,0.00335
3650.62499,0.00318
3648.56482,0.00350
3646.50465,0.00433
3644.44447,0.00515
3642.38430,0.00572
3640.32413,0.00621
3638.26396,0.00679
3636.20379,0.00722
3634.14361,0.00741
3632.08344,0.00782
3630.02327,0.00866
3627.96310,0.00927
3625.90293,0.00923
3623.84275,0.00916
3621.78258,0.00937
3619.72241,0.00992
3617.66224,0.01070
3615.60207,0.01125
3613.54189,0.01136
3611.48172,0.01120
3609.42155,0.01120
3607.36138,0.01169
3605.30120,0.01234
3603.24103,0.01275
3601.18086,0.01311
3599.12069,0.01365
3597.06052,0.01415
3595.00034,0.01444
3592.94017,0.01477
3590.88000,0.01537
3588.81983,0.01609
3586.75966,0.01658
3584.69948,0.01675
3582.63931,0.01686
3580.57914,0.01705
3578.51897,0.01735
3576.45879,0.01788
3574.39862,0.01849
3572.33845,0.01893
3570.27828,0.01922
3568.21811,0.01962
3566.15793,0.02023
3564.09776,0.02086
3562.03759,0.02126
3559.97742,0.02150
3557.91725,0.02178
3555.85707,0.02222
3553.79690,0.02276
3551.73673,0.02314
3549.67656,0.02342
3547.61639,0.02397
3545.55621,0.02481
3543.49604,0.02556
3541.43587,0.02596
3539.37570,0.02620
3537.31552,0.02662
3535.25535,0.02721
3533.19518,0.02762
3531.13501,0.02773
3529.07484,0.02791
3527.01466,0.02836
3524.95449,0.02868
3522.89432,0.02868
3520.83415,0.02877
3518.77398,0.02918
3516.71380,0.02967
3514.65363,0.02999
3512.59346,0.03022
3510.53329,0.03053
3508.47312,0.03093
3506.41294,0.03134
3504.35277,0.03187
3502.29260,0.03259
3500.23243,0.03325
3498.17225,0.03371
3496.11208,0.03411
3494.05191,0.03432
3491.99174,0.03430
3489.93157,0.03452
3487.87139,0.03499
3485.81122,0.03545
3483.75105,0.03594
3481.69088,0.03643
3479.63071,0.03672
3477.57053,0.03685
3475.51036,0.03707
3473.45019,0.03736
3471.39002,0.03749
3469.32984,0.03751
3467.26967,0.03773
3465.20950,0.03833
3463.14933,0.03914
3461.08916,0.03981
3459.02898,0.04014
3456.96881,0.04016
3454.90864,0.04012
3452.84847,0.04021
3450.78830,0.04052
3448.72812,0.04106
3446.66795,0.04161
3444.60778,0.04197
3442.54761,0.04226
3440.48744,0.04252
3438.42726,0.04262
3436.36709,0.04268
3434.30692,0.04265
3432.24675,0.04252
3430.18657,0.04276
3428.12640,0.04327
3426.06623,0.04367
3424.00606,0.04402
3421.94589,0.04436
3419.88571,0.04467
3417.82554,0.04507
3415.76537,0.04549
3413.70520,0.04575
3411.64503,0.04589
3409.58485,0.04608
3407.52468,0.04629
3405.46451,0.04645
3403.40434,0.04657
3401.34416,0.04655
3399.28399,0.04635
3397.22382,0.04631
3395.16365,0.04649
3393.10348,0.04681
3391.04330,0.04728
3388.98313,0.04752
3386.92296,0.04734
3384.86279,0.04728
3382.80262,0.04756
3380.74244,0.04796
3378.68227,0.04824
3376.62210,0.04830
3374.56193,0.04830
3372.50176,0.04838
3370.44158,0.04850
3368.38141,0.04867
3366.32124,0.04877
3364.26107,0.04886
3362.20089,0.04911
3360.14072,0.04929
3358.08055,0.04916
3356.02038,0.04895
3353.96021,0.04907
3351.90003,0.04943
3349.83986,0.04987
3347.77969,0.05018
3345.71952,0.05002
3343.65935,0.04964
3341.59917,0.04959
3339.53900,0.04979
3337.47883,0.04983
3335.41866,0.04976
3333.35849,0.04975
3331.29831,0.04988
3329.23814,0.05011
3327.17797,0.05027
3325.11780,0.05028
3323.05762,0.05021
3320.99745,0.05028
3318.93728,0.05048
3316.87711,0.05055
3314.81694,0.05046
3312.75676,0.05028
3310.69659,0.05007
3308.63642,0.05000
3306.57625,0.05015
3304.51608,0.05035
3302.45590,0.05063
3300.39573,0.05110
3298.33556,0.05138
3296.27539,0.05122
3294.21521,0.05089
3292.15504,0.05066
3290.09487,0.05058
3288.03470,0.05064
3285.97453,0.05079
3283.91435,0.05090
3281.85418,0.05096
3279.79401,0.05102
3277.73384,0.05106
3275.67367,0.05118
3273.61349,0.05141
3271.55332,0.05162
3269.49315,0.05166
3267.43298,0.05148
3265.37281,0.05126
3263.31263,0.05120
3261.25246,0.05124
3259.19229,0.05118
3257.13212,0.05103
3255.07194,0.05113
3253.01177,0.05147
3250.95160,0.05167
3248.89143,0.05169
3246.83126,0.05164
3244.77108,0.05152
3242.71091,0.05136
3240.65074,0.05118
3238.59057,0.05121
3236.53040,0.05144
3234.47022,0.05151
3232.41005,0.05150
3230.34988,0.05147
3228.28971,0.05126
3226.22954,0.05105
3224.16936,0.05094
3222.10919,0.05089
3220.04902,0.05100
3217.98885,0.05122
3215.92867,0.05142
3213.86850,0.05140
3211.80833,0.05103
3209.74816,0.05058
3207.68799,0.05037
3205.62781,0.05042
3203.56764,0.05047
3201.50747,0.05042
3199.44730,0.05040
3197.38713,0.05038
3195.32695,0.05015
3193.26678,0.04981
3191.20661,0.04966
3189.14644,0.04969
3187.08626,0.04962
3185.02609,0.04937
3182.96592,0.04925
3180.90575,0.04924
3178.84558,0.04915
3176.78540,0.04899
3174.72523,0.04883
3172.66506,0.04887
3170.60489,0.04899
3168.54472,0.04887
3166.48454,0.04863
3164.42437,0.04840
3162.36420,0.04810
3160.30403,0.04771
3158.24386,0.04732
3156.18368,0.04714
3154.12351,0.04726
3152.06334,0.04759
3150.00317,0.04757
3147.94299,0.04702
3145.88282,0.04645
3143.82265,0.04624
3141.76248,0.04632
3139.70231,0.04632
3137.64213,0.04613
3135.58196,0.04593
3133.52179,0.04578
3131.46162,0.04568
3129.40145,0.04555
3127.34127,0.04533
3125.28110,0.04506
3123.22093,0.04469
3121.16076,0.04430
3119.10058,0.04405
3117.04041,0.04382
3114.98024,0.04346
3112.92007,0.04313
3110.85990,0.04304
3108.79972,0.04296
3106.73955,0.04280
3104.67938,0.04276
3102.61921,0.04280
3100.55904,0.04259
3098.49886,0.04215
3096.43869,0.04178
3094.37852,0.04154
3092.31835,0.04130
3090.25818,0.04108
3088.19800,0.04094
3086.13783,0.04083
3084.07766,0.04065
3082.01749,0.04040
3079.95731,0.04022
3077.89714,0.04014
3075.83697,0.03999
3073.77680,0.03979
3071.71663,0.03967
3069.65645,0.03962
3067.59628,0.03957
3065.53611,0.03933
3063.47594,0.03872
3061.41577,0.03808
3059.35559,0.03779
3057.29542,0.03774
3055.23525,0.03769
3053.17508,0.03755
3051.11491,0.03742
3049.05473,0.03739
3046.99456,0.03740
3044.93439,0.03737
3042.87422,0.03709
3040.81404,0.03651
3038.75387,0.03605
3036.69370,0.03589
3034.63353,0.03569
3032.57336,0.03530
3030.51318,0.03495
3028.45301,0.03473
3026.39284,0.03454
3024.33267,0.03434
3022.27250,0.03423
3020.21232,0.03425
3018.15215,0.03413
3016.09198,0.03377
3014.03181,0.03343
3011.97163,0.03316
3009.91146,0.03285
3007.85129,0.03255
3005.79112,0.03239
3003.73095,0.03238
3001.67077,0.03244
2999.61060,0.03234
2997.55043,0.03193
2995.49026,0.03154
2993.43009,0.03147
2991.36991,0.03146
2989.30974,0.03133
2987.24957,0.03117
2985.18940,0.03105
2983.12923,0.03085
2981.06905,0.03050
2979.00888,0.03018
2976.94871,0.03003
2974.88854,0.02999
2972.82836,0.02994
2970.76819,0.02994
2968.70802,0.02988
2966.64785,0.02974
2964.58768,0.02967
2962.52750,0.02960
2960.46733,0.02939
2958.40716,0.02920
2956.34699,0.02932
2954.28682,0.02957
2952.22664,0.02956
2950.16647,0.02948
2948.10630,0.02937
2946.04613,0.02908
2943.98596,0.02894
2941.92578,0.02892
2939.86561,0.02880
2937.80544,0.02863
2935.74527,0.02849
2933.68509,0.02836
2931.62492,0.02838
2929.56475,0.02840
2927.50458,0.02813
2925.44441,0.02785
2923.38423,0.02772
2921.32406,0.02761
2919.26389,0.02747
2917.20372,0.02728
2915.14355,0.02705
2913.08337,0.02681
2911.02320,0.02682
2908.96303,0.02699
2906.90286,0.02685
2904.84268,0.02654
2902.78251,0.02644
2900.72234,0.02643
2898.66217,0.02633
2896.60200,0.02630
2894.54182,0.02636
2892.48165,0.02642
2890.42148,0.02654
2888.36131,0.02661
2886.30114,0.02650
2884.24096,0.02642
2882.18079,0.02641
2880.12062,0.02636
2878.06045,0.02612
2876.00028,0.02571
2873.94010,0.02541
2871.87993,0.02537
2869.81976,0.02531
2867.75959,0.02509
2865.69941,0.02493
2863.63924,0.02485
2861.57907,0.02466
2859.51890,0.02433
2857.45873,0.02417
2855.39855,0.02420
2853.33838,0.02407
2851.27821,0.02369
2849.21804,0.02333
2847.15787,0.02327
2845.09769,0.02330
2843.03752,0.02323
2840.97735,0.02321
2838.91718,0.02326
2836.85700,0.02317
2834.79683,0.02290
2832.73666,0.02260
2830.67649,0.02243
2828.61632,0.02243
2826.55614,0.02239
2824.49597,0.02220
2822.43580,0.02202
2820.37563,0.02194
2818.31546,0.02191
2816.25528,0.02187
2814.19511,0.02180
2812.13494,0.02167
2810.07477,0.02146
2808.01460,0.02129
2805.95442,0.02121
2803.89425,0.02119
2801.83408,0.02122
2799.77391,0.02129
2797.71373,0.02111
2795.65356,0.02071
2793.59339,0.02041
2791.53322,0.02030
2789.47305,0.02033
2787.41287,0.02038
2785.35270,0.02026
2783.29253,0.02006
2781.23236,0.02001
2779.17219,0.02010
2777.11201,0.02007
2775.05184,0.01982
2772.99167,0.01958
2770.93150,0.01945
2768.87133,0.01928
2766.81115,0.01919
2764.75098,0.01926
2762.69081,0.01926
2760.63064,0.01912
2758.57046,0.01896
2756.51029,0.01893
2754.45012,0.01899
2752.38995,0.01905
2750.32978,0.01893
2748.26960,0.01858
2746.20943,0.01815
2744.14926,0.01788
2742.08909,0.01792
2740.02892,0.01820
2737.96874,0.01840
2735.90857,0.01827
2733.84840,0.01795
2731.78823,0.01780
2729.72805,0.01779
2727.66788,0.01763
2725.60771,0.01733
2723.54754,0.01711
2721.48737,0.01705
2719.42719,0.01705
2717.36702,0.01705
2715.30685,0.01704
2713.24668,0.01697
2711.18651,0.01679
2709.12633,0.01653
2707.06616,0.01633
2705.00599,0.01627
2702.94582,0.01632
2700.88565,0.01637
2698.82547,0.01621
2696.76530,0.01596
2694.70513,0.01589
2692.64496,0.01587
2690.58478,0.01568
2688.52461,0.01550
2686.46444,0.01541
2684.40427,0.01525
2682.34410,0.01505
2680.28392,0.01496
2678.22375,0.01501
2676.16358,0.01503
2674.10341,0.01495
2672.04324,0.01473
2669.98306,0.01437
2667.92289,0.01410
2665.86272,0.01408
2663.80255,0.01412
2661.74238,0.01416
2659.68220,0.01422
2657.62203,0.01418
2655.56186,0.01401
2653.50169,0.01384
2651.44151,0.01370
2649.38134,0.01356
2647.32117,0.01342
2645.26100,0.01318
2643.20083,0.01290
2641.14065,0.01283
2639.08048,0.01285
2637.02031,0.01276
2634.96014,0.01269
2632.89997,0.01278
2630.83979,0.01287
2628.77962,0.01268
2626.71945,0.01229
2624.65928,0.01207
2622.59910,0.01212
2620.53893,0.01209
2618.47876,0.01180
2616.41859,0.01156
2614.35842,0.01157
2612.29824,0.01166
2610.23807,0.01155
2608.17790,0.01115
2606.11773,0.01070
2604.05756,0.01044
2601.99738,0.01063
2599.93721,0.01110
2597.87704,0.01131
2595.81687,0.01132
2593.75670,0.01129
2591.69652,0.01090
2589.63635,0.01041
2587.57618,0.01038
2585.51601,0.01043
2583.45583,0.01017
2581.39566,0.01003
2579.33549,0.01006
2577.27532,0.00993
2575.21515,0.00994
2573.15497,0.01014
2571.09480,0.01022
2569.03463,0.01034
2566.97446,0.01041
2564.91429,0.01007
2562.85411,0.00971
2560.79394,0.00973
2558.73377,0.00987
2556.67360,0.00975
2554.61342,0.00946
2552.55325,0.00950
2550.49308,0.00977
2548.43291,0.00976
2546.37274,0.00947
2544.31256,0.00937
2542.25239,0.00951
2540.19222,0.00958
2538.13205,0.00967
2536.07188,0.00959
2534.01170,0.00934
2531.95153,0.00947
2529.89136,0.00967
2527.83119,0.00951
2525.77102,0.00942
2523.71084,0.00969
2521.65067,0.01002
2519.59050,0.00993
2517.53033,0.00979
2515.47015,0.01017
2513.40998,0.01046
2511.34981,0.01020
2509.28964,0.00999
2507.22947,0.01018
2505.16929,0.01018
2503.10912,0.00970
2501.04895,0.00949
2498.98878,0.00979
2496.92861,0.01009
2494.86843,0.01035
2492.80826,0.01050
2490.74809,0.01050
2488.68792,0.01059
2486.62775,0.01062
2484.56757,0.01052
2482.50740,0.01059
2480.44723,0.01072
2478.38706,0.01031
2476.32688,0.00963
2474.26671,0.00970
2472.20654,0.01026
2470.14637,0.01039
2468.08620,0.01027
2466.02602,0.01032
2463.96585,0.01051
2461.90568,0.01067
2459.84551,0.01084
2457.78534,0.01094
2455.72516,0.01090
2453.66499,0.01085
2451.60482,0.01086
2449.54465,0.01101
2447.48447,0.01114
2445.42430,0.01121
2443.36413,0.01136
2441.30396,0.01143
2439.24379,0.01124
2437.18361,0.01122
2435.12344,0.01152
2433.06327,0.01160
2431.00310,0.01120
2428.94293,0.01062
2426.88275,0.01025
2424.82258,0.01025
2422.76241,0.01052
2420.70224,0.01073
2418.64207,0.01068
2416.58189,0.01050
2414.52172,0.01045
2412.46155,0.01052
2410.40138,0.01054
2408.34120,0.01045
2406.28103,0.01040
2404.22086,0.01053
2402.16069,0.01078
2400.10052,0.01097
2398.04034,0.01071
2395.98017,0.01038
2393.92000,0.01032
2391.85983,0.01063
2389.79966,0.01101
2387.73948,0.01111
2385.67931,0.01104
2383.61914,0.01094
2381.55897,0.01071
2379.49880,0.01044
2377.43862,0.01046
2375.37845,0.01087
2373.31828,0.01138
2371.25811,0.01132
2369.19793,0.01022
2367.13776,0.00903
2365.07759,0.00938
2363.01742,0.01096
2360.95725,0.01185
2358.89707,0.01185
2356.83690,0.01200
2354.77673,0.01198
2352.71656,0.01150
2350.65639,0.01112
2348.59621,0.01112
2346.53604,0.01150
2344.47587,0.01214
2342.41570,0.01245
2340.35552,0.01207
2338.29535,0.01134
2336.23518,0.01070
2334.17501,0.01043
2332.11484,0.01033
2330.05466,0.01039
2327.99449,0.01126
2325.93432,0.01245
2323.87415,0.01228
2321.81398,0.01094
2319.75380,0.01017
2317.69363,0.01045
2315.63346,0.01099
2313.57329,0.01107
2311.51312,0.01055
2309.45294,0.01002
2307.39277,0.01001
2305.33260,0.01022
2303.27243,0.01015
2301.21225,0.00991
2299.15208,0.00982
2297.09191,0.00985
2295.03174,0.00996
2292.97157,0.01000
2290.91139,0.00992
2288.85122,0.00992
2286.79105,0.00979
2284.73088,0.00924
2282.67071,0.00868
2280.61053,0.00832
2278.55036,0.00791
2276.49019,0.00758
2274.43002,0.00770
2272.36984,0.00801
2270.30967,0.00805
2268.24950,0.00784
2266.18933,0.00762
2264.12916,0.00781
2262.06898,0.00849
2260.00881,0.00879
2257.94864,0.00819
2255.88847,0.00771
2253.82830,0.00773
2251.76812,0.00766
2249.70795,0.00730
2247.64778,0.00705
2245.58761,0.00721
2243.52744,0.00741
2241.46726,0.00706
2239.40709,0.00664
2237.34692,0.00674
2235.28675,0.00688
2233.22657,0.00682
2231.16640,0.00679
2229.10623,0.00635
2227.04606,0.00556
2224.98589,0.00534
2222.92571,0.00584
2220.86554,0.00655
2218.80537,0.00676
2216.74520,0.00588
2214.68503,0.00478
2212.62485,0.00428
2210.56468,0.00436
2208.50451,0.00516
2206.44434,0.00596
2204.38417,0.00601
2202.32399,0.00632
2200.26382,0.00718
2198.20365,0.00736
2196.14348,0.00679
2194.08330,0.00607
2192.02313,0.00545
2189.96296,0.00515
2187.90279,0.00530
2185.84262,0.00570
2183.78244,0.00544
2181.72227,0.00489
2179.66210,0.00533
2177.60193,0.00604
2175.54176,0.00597
2173.48158,0.00518
2171.42141,0.00438
2169.36124,0.00394
2167.30107,0.00385
2165.24089,0.00420
2163.18072,0.00373
2161.12055,0.00210
2159.06038,0.00133
2157.00021,0.00143
2154.94003,0.00165
2152.87986,0.00284
2150.81969,0.00416
2148.75952,0.00433
2146.69935,0.00360
2144.63917,0.00284
2142.57900,0.00307
2140.51883,0.00384
2138.45866,0.00376
2136.39849,0.00316
2134.33831,0.00333
2132.27814,0.00385
2130.21797,0.00411
2128.15780,0.00428
2126.09762,0.00413
2124.03745,0.00383
2121.97728,0.00396
2119.91711,0.00463
2117.85694,0.00547
2115.79676,0.00595
2113.73659,0.00560
2111.67642,0.00484
2109.61625,0.00446
2107.55608,0.00432
2105.49590,0.00423
2103.43573,0.00467
2101.37556,0.00529
2099.31539,0.00522
2097.25521,0.00447
2095.19504,0.00419
2093.13487,0.00463
2091.07470,0.00481
2089.01453,0.00447
2086.95435,0.00414
2084.89418,0.00429
2082.83401,0.00458
2080.77384,0.00461
2078.71367,0.00472
2076.65349,0.00461
2074.59332,0.00397
2072.53315,0.00344
2070.47298,0.00349
2068.41281,0.00415
2066.35263,0.00480
2064.29246,0.00451
2062.23229,0.00353
2060.17212,0.00290
2058.11194,0.00296
2056.05177,0.00306
2053.99160,0.00293
2051.93143,0.00312
2049.87126,0.00371
2047.81108,0.00436
2045.75091,0.00467
2043.69074,0.00471
2041.63057,0.00479
2039.57040,0.00446
2037.51022,0.00387
2035.45005,0.00345
2033.38988,0.00238
2031.32971,0.00114
2029.26954,0.00145
2027.20936,0.00259
2025.14919,0.00268
2023.08902,0.00184
2021.02885,0.00173
2018.96867,0.00255
2016.90850,0.00265
2014.84833,0.00210
2012.78816,0.00225
2010.72799,0.00243
2008.66781,0.00228
2006.60764,0.00273
2004.54747,0.00343
2002.48730,0.00335
2000.42713,0.00222
1998.36695,0.00101
1996.30678,0.00101
1994.24661,0.00221
1992.18644,0.00289
1990.12626,0.00232
1988.06609,0.00227
1986.00592,0.00338
1983.94575,0.00431
1981.88558,0.00399
1979.82540,0.00269
1977.76523,0.00180
1975.70506,0.00134
1973.64489,0.00041
1971.58472,0.00048
1969.52454,0.00185
1967.46437,0.00230
1965.40420,0.00191
1963.34403,0.00205
1961.28386,0.00208
1959.22368,0.00161
1957.16351,0.00155
1955.10334,0.00218
1953.04317,0.00278
1950.98299,0.00293
1948.92282,0.00317
1946.86265,0.00346
1944.80248,0.00324
1942.74231,0.00275
1940.68213,0.00219
1938.62196,0.00195
1936.56179,0.00228
1934.50162,0.00258
1932.44145,0.00231
1930.38127,0.00159
1928.32110,0.00107
1926.26093,0.00113
1924.20076,0.00139
1922.14059,0.00138
1920.08041,0.00122
1918.02024,0.00152
1915.96007,0.00223
1913.89990,0.00243
1911.83972,0.00199
1909.77955,0.00163
1907.71938,0.00151
1905.65921,0.00127
1903.59904,0.00117
1901.53886,0.00156
1899.47869,0.00222
1897.41852,0.00282
1895.35835,0.00301
1893.29818,0.00255
1891.23800,0.00187
1889.17783,0.00154
1887.11766,0.00172
1885.05749,0.00209
1882.99731,0.00232
1880.93714,0.00247
1878.87697,0.00256
1876.81680,0.00256
1874.75663,0.00275
1872.69645,0.00307
1870.63628,0.00299
1868.57611,0.00258
1866.51594,0.00254
1864.45577,0.00277
1862.39559,0.00273
1860.33542,0.00236
1858.27525,0.00195
1856.21508,0.00177
1854.15491,0.00181
1852.09473,0.00196
1850.03456,0.00207
1847.97439,0.00206
1845.91422,0.00214
1843.85404,0.00234
1841.79387,0.00232
1839.73370,0.00217
1837.67353,0.00219
1835.61336,0.00241
1833.55318,0.00276
1831.49301,0.00319
1829.43284,0.00339
1827.37267,0.00326
1825.31250,0.00302
1823.25232,0.00278
1821.19215,0.00259
1819.13198,0.00255
1817.07181,0.00266
1815.01163,0.00282
1812.95146,0.00296
1810.89129,0.00305
1808.83112,0.00312
1806.77095,0.00309
1804.71077,0.00295
1802.65060,0.00285
1800.59043,0.00284
1798.53026,0.00290
1796.47009,0.00305
1794.40991,0.00330
1792.34974,0.00355
1790.28957,0.00359
1788.22940,0.00342
1786.16923,0.00329
1784.10905,0.00337
1782.04888,0.00358
1779.98871,0.00362
1777.92854,0.00342
1775.86836,0.00320
1773.80819,0.00314
1771.74802,0.00331
1769.68785,0.00363
1767.62768,0.00388
1765.56750,0.00404
1763.50733,0.00413
1761.44716,0.00418
1759.38699,0.00429
1757.32682,0.00454
1755.26664,0.00482
1753.20647,0.00494
1751.14630,0.00487
1749.08613,0.00479
1747.02596,0.00485
1744.96578,0.00492
1742.90561,0.00500
1740.84544,0.00522
1738.78527,0.00557
1736.72509,0.00583
1734.66492,0.00599
1732.60475,0.00621
1730.54458,0.00639
1728.48441,0.00639
1726.42423,0.00636
1724.36406,0.00650
1722.30389,0.00688
1720.24372,0.00742
1718.18355,0.00803
1716.12337,0.00847
1714.06320,0.00849
1712.00303,0.00828
1709.94286,0.00824
1707.88268,0.00841
1705.82251,0.00853
1703.76234,0.00851
1701.70217,0.00870
1699.64200,0.00944
1697.58182,0.01037
1695.52165,0.01099
1693.46148,0.01124
1691.40131,0.01135
1689.34114,0.01154
1687.28096,0.01183
1685.22079,0.01233
1683.16062,0.01306
1681.10045,0.01355
1679.04028,0.01383
1676.98010,0.01417
1674.91993,0.01463
1672.85976,0.01507
1670.79959,0.01538
1668.73941,0.01569
1666.67924,0.01604
1664.61907,0.01639
1662.55890,0.01665
1660.49873,0.01679
1658.43855,0.01696
1656.37838,0.01732
1654.31821,0.01773
1652.25804,0.01779
1650.19787,0.01743
1648.13769,0.01723
1646.07752,0.01750
1644.01735,0.01772
1641.95718,0.01760
1639.89701,0.01732
1637.83683,0.01712
1635.77666,0.01725
1633.71649,0.01740
1631.65632,0.01719
1629.59614,0.01691
1627.53597,0.01680
1625.47580,0.01669
1623.41563,0.01647
1621.35546,0.01629
1619.29528,0.01629
1617.23511,0.01651
1615.17494,0.01662
1613.11477,0.01635
1611.05460,0.01594
1608.99442,0.01574
1606.93425,0.01570
1604.87408,0.01554
1602.81391,0.01518
1600.75373,0.01477
1598.69356,0.01435
1596.63339,0.01391
1594.57322,0.01342
1592.51305,0.01290
1590.45287,0.01243
1588.39270,0.01206
1586.33253,0.01167
1584.27236,0.01113
1582.21219,0.01054
1580.15201,0.01012
1578.09184,0.00979
1576.03167,0.00939
1573.97150,0.00902
1571.91133,0.00885
1569.85115,0.00874
1567.79098,0.00841
1565.73081,0.00791
1563.67064,0.00746
1561.61046,0.00713
1559.55029,0.00691
1557.49012,0.00677
1555.42995,0.00640
1553.36978,0.00585
1551.30960,0.00550
1549.24943,0.00540
1547.18926,0.00523
1545.12909,0.00493
1543.06892,0.00477
1541.00874,0.00469
1538.94857,0.00436
1536.88840,0.00405
1534.82823,0.00396
1532.76805,0.00391
1530.70788,0.00382
1528.64771,0.00389
1526.58754,0.00406
1524.52737,0.00406
1522.46719,0.00377
1520.40702,0.00316
1518.34685,0.00257
1516.28668,0.00233
1514.22651,0.00236
1512.16633,0.00250
1510.10616,0.00261
1508.04599,0.00259
1505.98582,0.00250
1503.92565,0.00235
1501.86547,0.00214
1499.80530,0.00201
1497.74513,0.00202
1495.68496,0.00199
1493.62478,0.00179
1491.56461,0.00170
1489.50444,0.00193
1487.44427,0.00220
1485.38410,0.00226
1483.32392,0.00230
1481.26375,0.00244
1479.20358,0.00260
1477.14341,0.00271
1475.08324,0.00280
1473.02306,0.00294
1470.96289,0.00301
1468.90272,0.00292
1466.84255,0.00295
1464.78238,0.00324
1462.72220,0.00350
1460.66203,0.00371
1458.60186,0.00417
1456.54169,0.00460
1454.48151,0.00436
1452.42134,0.00389
1450.36117,0.00374
1448.30100,0.00377
1446.24083,0.00372
1444.18065,0.00368
1442.12048,0.00374
1440.06031,0.00381
1438.00014,0.00386
1435.93997,0.00392
1433.87979,0.00395
1431.81962,0.00404
1429.75945,0.00432
1427.69928,0.00469
1425.63910,0.00496
1423.57893,0.00506
1421.51876,0.00507
1419.45859,0.00509
1417.39842,0.00512
1415.33824,0.00507
1413.27807,0.00498
1411.21790,0.00494
1409.15773,0.00493
1407.09756,0.00488
1405.03738,0.00483
1402.97721,0.00472
1400.91704,0.00446
1398.85687,0.00418
1396.79670,0.00407
1394.73652,0.00411
1392.67635,0.00416
1390.61618,0.00419
1388.55601,0.00422
1386.49583,0.00422
1384.43566,0.00416
1382.37549,0.00412
1380.31532,0.00416
1378.25515,0.00420
1376.19497,0.00420
1374.13480,0.00420
1372.07463,0.00407
1370.01446,0.00382
1367.95429,0.00370
1365.89411,0.00381
1363.83394,0.00393
1361.77377,0.00388
1359.71360,0.00371
1357.65343,0.00355
1355.59325,0.00341
1353.53308,0.00327
1351.47291,0.00317
1349.41274,0.00305
1347.35256,0.00288
1345.29239,0.00279
1343.23222,0.00273
1341.17205,0.00269
1339.11188,0.00277
1337.05170,0.00298
1334.99153,0.00312
1332.93136,0.00304
1330.87119,0.00283
1328.81102,0.00265
1326.75084,0.00261
1324.69067,0.00266
1322.63050,0.00269
1320.57033,0.00274
1318.51015,0.00278
1316.44998,0.00277
1314.38981,0.00278
1312.32964,0.00284
1310.26947,0.00287
1308.20929,0.00284
1306.14912,0.00280
1304.08895,0.00280
1302.02878,0.00287
1299.96861,0.00305
1297.90843,0.00325
1295.84826,0.00330
1293.78809,0.00325
1291.72792,0.00324
1289.66775,0.00337
1287.60757,0.00358
1285.54740,0.00367
1283.48723,0.00367
1281.42706,0.00366
1279.36688,0.00371
1277.30671,0.00382
1275.24654,0.00391
1273.18637,0.00395
1271.12620,0.00400
1269.06602,0.00402
1267.00585,0.00398
1264.94568,0.00399
1262.88551,0.00408
1260.82534,0.00415
1258.76516,0.00413
1256.70499,0.00405
1254.64482,0.00393
1252.58465,0.00386
1250.52447,0.00390
1248.46430,0.00396
1246.40413,0.00396
1244.34396,0.00389
1242.28379,0.00375
1240.22361,0.00362
1238.16344,0.00347
1236.10327,0.00315
1234.04310,0.00269
1231.98293,0.00231
1229.92275,0.00211
1227.86258,0.00202
1225.80241,0.00196
1223.74224,0.00177
1221.68207,0.00158
1219.62189,0.00155
1217.56172,0.00150
1215.50155,0.00137
1213.44138,0.00124
1211.38120,0.00097
1209.32103,0.00063
1207.26086,0.00056
1205.20069,0.00074
1203.14052,0.00088
1201.08034,0.00090
1199.02017,0.00085
1196.96000,0.00089
1194.89983,0.00115
1192.83966,0.00147
1190.77948,0.00173
1188.71931,0.00202
1186.65914,0.00240
1184.59897,0.00291
1182.53880,0.00347
1180.47862,0.00408
1178.41845,0.00495
1176.35828,0.00601
1174.29811,0.00706
1172.23793,0.00804
1170.17776,0.00889
1168.11759,0.00967
1166.05742,0.01053
1163.99725,0.01144
1161.93707,0.01233
1159.87690,0.01324
1157.81673,0.01419
1155.75656,0.01502
1153.69639,0.01579
1151.63621,0.01671
1149.57604,0.01786
1147.51587,0.01907
1145.45570,0.02007
1143.39552,0.02094
1141.33535,0.02193
1139.27518,0.02302
1137.21501,0.02408
1135.15484,0.02515
1133.09466,0.02636
1131.03449,0.02771
1128.97432,0.02910
1126.91415,0.03037
1124.85398,0.03161
1122.79380,0.03294
1120.73363,0.03410
1118.67346,0.03521
1116.61329,0.03662
1114.55312,0.03814
1112.49294,0.03957
1110.43277,0.04104
1108.37260,0.04238
1106.31243,0.04341
1104.25225,0.04457
1102.19208,0.04615
1100.13191,0.04767
1098.07174,0.04895
1096.01157,0.05020
1093.95139,0.05135
1091.89122,0.05246
1089.83105,0.05363
1087.77088,0.05478
1085.71071,0.05585
1083.65053,0.05693
1081.59036,0.05801
1079.53019,0.05893
1077.47002,0.05972
1075.40985,0.06050
1073.34967,0.06118
1071.28950,0.06153
1069.22933,0.06163
1067.16916,0.06169
1065.10898,0.06171
1063.04881,0.06158
1060.98864,0.06114
1058.92847,0.06039
1056.86830,0.05955
1054.80812,0.05885
1052.74795,0.05819
1050.68778,0.05730
1048.62761,0.05616
1046.56744,0.05488
1044.50726,0.05368
1042.44709,0.05266
1040.38692,0.05158
1038.32675,0.05030
1036.26657,0.04892
1034.20640,0.04764
1032.14623,0.04654
1030.08606,0.04534
1028.02589,0.04398
1025.96571,0.04290
1023.90554,0.04227
1021.84537,0.04150
1019.78520,0.04017
1017.72503,0.03878
1015.66485,0.03760
1013.60468,0.03652
1011.54451,0.03581
1009.48434,0.03555
1007.42417,0.03547
1005.36399,0.03557
1003.30382,0.03580
1001.24365,0.03597
999.18348,0.03618
997.12330,0.03675
995.06313,0.03772
993.00296,0.03875
990.94279,0.03962
988.88262,0.04021
986.82244,0.04060
984.76227,0.04100
982.70210,0.04124
980.64193,0.04102
978.58176,0.04037
976.52158,0.03936
974.46141,0.03820
972.40124,0.03700
970.34107,0.03547
968.28089,0.03370
966.22072,0.03208
964.16055,0.03063
962.10038,0.02932
960.04021,0.02812
957.98003,0.02695
955.91986,0.02590
953.85969,0.02499
951.79952,0.02400
949.73935,0.02309
947.67917,0.02246
945.61900,0.02193
943.55883,0.02139
941.49866,0.02080
939.43849,0.02025
937.37831,0.01992
935.31814,0.01986
933.25797,0.01992
931.19780,0.01976
929.13762,0.01924
927.07745,0.01864
925.01728,0.01826
922.95711,0.01801
920.89694,0.01783
918.83676,0.01747
916.77659,0.01659
914.71642,0.01572
912.65625,0.01541
910.59608,0.01533
908.53590,0.01513
906.47573,0.01475
904.41556,0.01451
902.35539,0.01449
900.29522,0.01430
898.23504,0.01424
896.17487,0.01456
894.11470,0.01478
892.05453,0.01492
889.99435,0.01522
887.93418,0.01542
885.87401,0.01553
883.81384,0.01586
881.75367,0.01635
879.69349,0.01695
877.63332,0.01734
875.57315,0.01757
873.51298,0.01813
871.45281,0.01861
869.39263,0.01865
867.33246,0.01862
865.27229,0.01871
863.21212,0.01890
861.15194,0.01914
859.09177,0.01920
857.03160,0.01897
854.97143,0.01855
852.91126,0.01800
850.85108,0.01745
848.79091,0.01692
846.73074,0.01648
844.67057,0.01618
842.61040,0.01578
840.55022,0.01493
838.49005,0.01384
836.42988,0.01345
834.36971,0.01350
832.30954,0.01294
830.24936,0.01191
828.18919,0.01087
826.12902,0.01011
824.06885,0.00992
822.00867,0.00999
819.94850,0.00985
817.88833,0.00913
815.82816,0.00832
813.76799,0.00825
811.70781,0.00831
809.64764,0.00794
807.58747,0.00760
805.52730,0.00735
803.46713,0.00688
801.40695,0.00642
799.34678,0.00630
797.28661,0.00646
795.22644,0.00639
793.16627,0.00601
791.10609,0.00590
789.04592,0.00612
786.98575,0.00615
784.92558,0.00598
782.86540,0.00590
780.80523,0.00585
778.74506,0.00567
776.68489,0.00550
774.62472,0.00539
772.56454,0.00510
770.50437,0.00488
768.44420,0.00514
766.38403,0.00541
764.32386,0.00526
762.26368,0.00511
760.20351,0.00511
758.14334,0.00505
756.08317,0.00503
754.02299,0.00461
751.96282,0.00378
749.90265,0.00345
747.84248,0.00355
745.78231,0.00344
743.72213,0.00346
741.66196,0.00390
739.60179,0.00415
737.54162,0.00409
735.48145,0.00384
733.42127,0.00327
731.36110,0.00329
729.30093,0.00411
727.24076,0.00441
725.18059,0.00418
723.12041,0.00390
721.06024,0.00333
719.00007,0.00296
716.93990,0.00316
714.87972,0.00367
712.81955,0.00398
710.75938,0.00398
708.69921,0.00396
706.63904,0.00405
704.57886,0.00401
702.51869,0.00370
700.45852,0.00354
698.39835,0.00367
696.33818,0.00373
694.27800,0.00356
692.21783,0.00326
690.15766,0.00306
688.09749,0.00296
686.03731,0.00292
683.97714,0.00347
681.91697,0.00473
679.85680,0.00551
677.79663,0.00507
675.73645,0.00426
673.67628,0.00386
671.61611,0.00402
669.55594,0.00500
667.49577,0.00629
665.43559,0.00649
663.37542,0.00614
661.31525,0.00539
659.25508,0.00431
657.19491,0.00366
655.13473,0.00372
653.07456,0.00383
651.01439,0.00371
648.95422,0.00381
646.89404,0.00429
644.83387,0.00453
642.77370,0.00403
640.71353,0.00326
638.65336,0.00290
636.59318,0.00300
634.53301,0.00342
632.47284,0.00357
630.41267,0.00280
628.35250,0.00177
626.29232,0.00233
624.23215,0.00441
622.17198,0.00454
620.11181,0.00226
618.05164,0.00068
615.99146,0.00111
613.93129,0.00404
611.87112,0.00515
609.81095,0.00266
607.75077,0.00070
605.69060,0.00012
603.63043,0.00000
601.57026,0.00094
599.51009,0.00000
