3996.73391,0.00027
3994.67373,0.00033
3992.61356,0.00034
3990.55339,0.00024
3988.49322,0.00014
3986.43305,0.00002
3984.37287,0.00000
3982.31270,0.00003
3980.25253,0.00002
3978.19236,0.00029
3976.13219,0.00077
3974.07201,0.00089
3972.01184,0.00054
3969.95167,0.00023
3967.89150,0.00031
3965.83133,0.00056
3963.77115,0.00056
3961.71098,0.00042
3959.65081,0.00060
3957.59064,0.00090
3955.53046,0.00081
3953.47029,0.00045
3951.41012,0.00044
3949.34995,0.00090
3947.28978,0.00123
3945.22960,0.00099
3943.16943,0.00047
3941.10926,0.00016
3939.04909,0.00006
3936.98892,0.00000
3934.92874,0.00008
3932.86857,0.00054
3930.80840,0.00109
3928.74823,0.00125
3926.68805,0.00097
3924.62788,0.00056
3922.56771,0.00023
3920.50754,0.00024
3918.44737,0.00054
3916.38719,0.00064
3914.32702,0.00039
3912.26685,0.00032
3910.20668,0.00064
3908.14651,0.00090
3906.08633,0.00096
3904.02616,0.00116
3901.96599,0.00142
3899.90582,0.00139
3897.84565,0.00121
3895.78547,0.00128
3893.72530,0.00160
3891.66513,0.00162
3889.60496,0.00104
3887.54478,0.00053
3885.48461,0.00067
3883.42444,0.00100
3881.36427,0.00101
3879.30410,0.00093
3877.24392,0.00102
3875.18375,0.00119
3873.12358,0.00124
3871.06341,0.00115
3869.00324,0.00100
3866.94306,0.00089
3864.88289,0.00121
3862.82272,0.00171
3860.76255,0.00148
3858.70237,0.00089
3856.64220,0.00091
3854.58203,0.00154
3852.52186,0.00190
3850.46169,0.00173
3848.40151,0.00155
3846.34134,0.00129
3844.28117,0.00076
3842.22100,0.00037
3840.16083,0.00051
3838.10065,0.00082
3836.04048,0.00092
3833.98031,0.00091
3831.92014,0.00094
3829.85997,0.00103
3827.79979,0.00110
3825.73962,0.00106
3823.67945,0.00099
3821.61928,0.00101
3819.55910,0.00080
3817.49893,0.00035
3815.43876,0.00031
3813.37859,0.00072
3811.31842,0.00105
3809.25824,0.00114
3807.19807,0.00119
3805.13790,0.00126
3803.07773,0.00136
3801.01756,0.00140
3798.95738,0.00114
3796.89721,0.00077
3794.83704,0.00074
3792.77687,0.00113
3790.71670,0.00155
3788.65652,0.00148
3786.59635,0.00096
3784.53618,0.00068
3782.47601,0.00089
3780.41583,0.00125
3778.35566,0.00133
3776.29549,0.00106
3774.23532,0.00074
3772.17515,0.00064
3770.11497,0.00087
3768.05480,0.00127
3765.99463,0.00142
3763.93446,0.00111
3761.87429,0.00062
3759.81411,0.00048
3757.75394,0.00094
3755.69377,0.00157
3753.63360,0.00201
3751.57342,0.00230
3749.51325,0.00237
3747.45308,0.00205
3745.39291,0.00145
3743.33274,0.00098
3741.27256,0.00068
3739.21239,0.00028
3737.15222,0.00000
3735.09205,0.00029
3733.03188,0.00086
3730.97170,0.00116
3728.91153,0.00133
3726.85136,0.00152
3724.79119,0.00166
3722.73102,0.00166
3720.67084,0.00162
3718.61067,0.00165
3716.55050,0.00170
3714.49033,0.00165
3712.43015,0.00164
3710.36998,0.00189
3708.30981,0.00214
3706.24964,0.00204
3704.18947,0.00174
3702.12929,0.00147
3700.06912,0.00125
3698.00895,0.00115
3695.94878,0.00112
3693.88861,0.00102
3691.82843,0.00112
3689.76826,0.00169
3687.70809,0.00223
3685.64792,0.00215
3683.58775,0.00176
3681.52757,0.00151
3679.46740,0.00149
3677.40723,0.00175
3675.34706,0.00230
3673.28688,0.00260
3671.22671,0.00245
3669.16654,0.00234
3667.10637,0.00227
3665.04620,0.00221
3662.98602,0.00244
3660.92585,0.00279
3658.86568,0.00301
3656.80551,0.00328
3654.74534,0.00358
3652.68516,0.00365
3650.62499,0.00372
3648.56482,0.00403
3646.50465,0.00430
3644.44447,0.00467
3642.38430,0.00538
3640.32413,0.00626
3638.26396,0.00682
3636.20379,0.00680
3634.14361,0.00650
3632.08344,0.00652
3630.02327,0.00731
3627.96310,0.00848
3625.90293,0.00896
3623.84275,0.00883
3621.78258,0.00894
3619.72241,0.00977
3617.66224,0.01075
3615.60207,0.01095
3613.54189,0.01064
3611.48172,0.01054
3609.42155,0.01100
3607.36138,0.01190
3605.30120,0.01266
3603.24103,0.01291
3601.18086,0.01292
3599.12069,0.01316
3597.06052,0.01370
3595.00034,0.01425
3592.94017,0.01466
3590.88000,0.01500
3588.81983,0.01551
3586.75966,0.01621
3584.69948,0.01676
3582.63931,0.01697
3580.57914,0.01699
3578.51897,0.01718
3576.45879,0.01770
3574.39862,0.01823
3572.33845,0.01858
3570.27828,0.01883
3568.21811,0.01909
3566.15793,0.01963
3564.09776,0.02036
3562.03759,0.02093
3559.97742,0.02125
3557.91725,0.02133
3555.85707,0.02139
3553.79690,0.02172
3551.73673,0.02212
3549.67656,0.02244
3547.61639,0.02311
3545.55621,0.02420
3543.49604,0.02492
3541.43587,0.02489
3539.37570,0.02480
3537.31552,0.02537
3535.25535,0.02637
3533.19518,0.02716
3531.13501,0.02759
3529.07484,0.02780
3527.01466,0.02791
3524.95449,0.02789
3522.89432,0.02777
3520.83415,0.02775
3518.77398,0.02796
3516.71380,0.02837
3514.65363,0.02889
3512.59346,0.02946
3510.53329,0.03002
3508.47312,0.03047
3506.41294,0.03081
3504.35277,0.03132
3502.29260,0.03187
3500.23243,0.03215
3498.17225,0.03247
3496.11208,0.03316
3494.05191,0.03376
3491.99174,0.03382
3489.93157,0.03374
3487.87139,0.03400
3485.81122,0.03446
3483.75105,0.03497
3481.69088,0.03552
3479.63071,0.03587
3477.57053,0.03592
3475.51036,0.03609
3473.45019,0.03650
3471.39002,0.03685
3469.32984,0.03713
3467.26967,0.03726
3465.20950,0.03718
3463.14933,0.03733
3461.08916,0.03790
3459.02898,0.03852
3456.96881,0.03873
3454.90864,0.03860
3452.84847,0.03871
3450.78830,0.03933
3448.72812,0.04004
3446.66795,0.04037
3444.60778,0.04032
3442.54761,0.04031
3440.48744,0.04049
3438.42726,0.04062
3436.36709,0.04063
3434.30692,0.04071
3432.24675,0.04093
3430.18657,0.04137
3428.12640,0.04191
3426.06623,0.04232
3424.00606,0.04258
3421.94589,0.04285
3419.88571,0.04323
3417.82554,0.04345
3415.76537,0.04342
3413.70520,0.04357
3411.64503,0.04393
3409.58485,0.04416
3407.52468,0.04432
3405.46451,0.04450
3403.40434,0.04472
3401.34416,0.04494
3399.28399,0.04506
3397.22382,0.04529
3395.16365,0.04557
3393.10348,0.04577
3391.04330,0.04589
3388.98313,0.04590
3386.92296,0.04569
3384.86279,0.04545
3382.80262,0.04556
3380.74244,0.04592
3378.68227,0.04611
3376.62210,0.04634
3374.56193,0.04704
3372.50176,0.04772
3370.44158,0.04770
3368.38141,0.04730
3366.32124,0.04721
3364.26107,0.04739
3362.20089,0.04757
3360.14072,0.04768
3358.08055,0.04770
3356.02038,0.04777
3353.96021,0.04807
3351.90003,0.04829
3349.83986,0.04829
3347.77969,0.04827
3345.71952,0.04819
3343.65935,0.04798
3341.59917,0.04779
3339.53900,0.04788
3337.47883,0.04816
3335.41866,0.04823
3333.35849,0.04819
3331.29831,0.04847
3329.23814,0.04873
3327.17797,0.04862
3325.11780,0.04840
3323.05762,0.04837
3320.99745,0.04853
3318.93728,0.04867
3316.87711,0.04883
3314.81694,0.04898
3312.75676,0.04879
3310.69659,0.04844
3308.63642,0.04848
3306.57625,0.04890
3304.51608,0.04935
3302.45590,0.04975
3300.39573,0.05010
3298.33556,0.05018
3296.27539,0.04985
3294.21521,0.04936
3292.15504,0.04918
3290.09487,0.04926
3288.03470,0.04928
3285.97453,0.04933
3283.91435,0.04942
3281.85418,0.04933
3279.79401,0.04935
3277.73384,0.04972
3275.67367,0.05000
3273.61349,0.04993
3271.55332,0.04985
3269.49315,0.04999
3267.43298,0.05007
3265.37281,0.04980
3263.31263,0.04940
3261.25246,0.04918
3259.19229,0.04916
3257.13212,0.04926
3255.07194,0.04948
3253.01177,0.04979
3250.95160,0.05000
3248.89143,0.04996
3246.83126,0.04985
3244.77108,0.04997
3242.71091,0.05014
3240.65074,0.05008
3238.59057,0.04998
3236.53040,0.04987
3234.47022,0.04973
3232.41005,0.04981
3230.34988,0.04981
3228.28971,0.04956
3226.22954,0.04963
3224.16936,0.04990
3222.10919,0.04985
3220.04902,0.04976
3217.98885,0.04985
3215.92867,0.04983
3213.86850,0.04961
3211.80833,0.04928
3209.74816,0.04898
3207.68799,0.04885
3205.62781,0.04890
3203.56764,0.04900
3201.50747,0.04908
3199.44730,0.04905
3197.38713,0.04885
3195.32695,0.04855
3193.26678,0.04818
3191.20661,0.04789
3189.14644,0.04777
3187.08626,0.04764
3185.02609,0.04758
3182.96592,0.04774
3180.90575,0.04785
3178.84558,0.04777
3176.78540,0.04765
3174.72523,0.04762
3172.66506,0.04765
3170.60489,0.04758
3168.54472,0.04730
3166.48454,0.04700
3164.42437,0.04687
3162.36420,0.04677
3160.30403,0.04647
3158.24386,0.04624
3156.18368,0.04624
3154.12351,0.04623
3152.06334,0.04628
3150.00317,0.04625
3147.94299,0.04596
3145.88282,0.04562
3143.82265,0.04543
3141.76248,0.04533
3139.70231,0.04515
3137.64213,0.04506
3135.58196,0.04504
3133.52179,0.04470
3131.46162,0.04419
3129.40145,0.04389
3127.34127,0.04375
3125.28110,0.04362
3123.22093,0.04340
3121.16076,0.04313
3119.10058,0.04301
3117.04041,0.04296
3114.98024,0.04273
3112.92007,0.04242
3110.85990,0.04226
3108.79972,0.04205
3106.73955,0.04170
3104.67938,0.04158
3102.61921,0.04164
3100.55904,0.04149
3098.49886,0.04125
3096.43869,0.04099
3094.37852,0.04056
3092.31835,0.04013
3090.25818,0.03999
3088.19800,0.03995
3086.13783,0.03979
3084.07766,0.03960
3082.01749,0.03941
3079.95731,0.03920
3077.89714,0.03907
3075.83697,0.03891
3073.77680,0.03857
3071.71663,0.03830
3069.65645,0.03829
3067.59628,0.03841
3065.53611,0.03851
3063.47594,0.03830
3061.41577,0.03774
3059.35559,0.03717
3057.29542,0.03693
3055.23525,0.03700
3053.17508,0.03695
3051.11491,0.03664
3049.05473,0.03650
3046.99456,0.03656
3044.93439,0.03644
3042.87422,0.03606
3040.81404,0.03556
3038.75387,0.03513
3036.69370,0.03483
3034.63353,0.03453
3032.57336,0.03427
3030.51318,0.03406
3028.45301,0.03370
3026.39284,0.03329
3024.33267,0.03313
3022.27250,0.03333
3020.21232,0.03350
3018.15215,0.03316
3016.09198,0.03266
3014.03181,0.03245
3011.97163,0.03228
3009.91146,0.03202
3007.85129,0.03198
3005.79112,0.03203
3003.73095,0.03183
3001.67077,0.03153
2999.61060,0.03129
2997.55043,0.03101
2995.49026,0.03082
2993.43009,0.03072
2991.36991,0.03053
2989.30974,0.03031
2987.24957,0.03014
2985.18940,0.02999
2983.12923,0.02980
2981.06905,0.02969
2979.00888,0.02964
2976.94871,0.02949
2974.88854,0.02933
2972.82836,0.02928
2970.76819,0.02939
2968.70802,0.02944
2966.64785,0.02925
2964.58768,0.02912
2962.52750,0.02911
2960.46733,0.02913
2958.40716,0.02905
2956.34699,0.02894
2954.28682,0.02890
2952.22664,0.02889
2950.16647,0.02896
2948.10630,0.02899
2946.04613,0.02878
2943.98596,0.02852
2941.92578,0.02828
2939.86561,0.02816
2937.80544,0.02824
2935.74527,0.02825
2933.68509,0.02804
2931.62492,0.02790
2929.56475,0.02778
2927.50458,0.02758
2925.44441,0.02752
2923.38423,0.02755
2921.32406,0.02748
2919.26389,0.02732
2917.20372,0.02714
2915.14355,0.02697
2913.08337,0.02673
2911.02320,0.02654
2908.96303,0.02644
2906.90286,0.02618
2904.84268,0.02588
2902.78251,0.02585
2900.72234,0.02605
2898.66217,0.02624
2896.60200,0.02622
2894.54182,0.02614
2892.48165,0.02620
2890.42148,0.02618
2888.36131,0.02591
2886.30114,0.02575
2884.24096,0.02596
2882.18079,0.02611
2880.12062,0.02576
2878.06045,0.02528
2876.00028,0.02514
2873.94010,0.02525
2871.87993,0.02533
2869.81976,0.02521
2867.75959,0.02488
2865.69941,0.02458
2863.63924,0.02452
2861.57907,0.02444
2859.51890,0.02414
2857.45873,0.02389
2855.39855,0.02386
2853.33838,0.02387
2851.27821,0.02369
2849.21804,0.02328
2847.15787,0.02290
2845.09769,0.02267
2843.03752,0.02274
2840.97735,0.02303
2838.91718,0.02309
2836.85700,0.02283
2834.79683,0.02243
2832.73666,0.02217
2830.67649,0.02220
2828.61632,0.02231
2826.55614,0.02223
2824.49597,0.02201
2822.43580,0.02179
2820.37563,0.02165
2818.31546,0.02162
2816.25528,0.02163
2814.19511,0.02158
2812.13494,0.02142
2810.07477,0.02124
2808.01460,0.02111
2805.95442,0.02114
2803.89425,0.02121
2801.83408,0.02106
2799.77391,0.02080
2797.71373,0.02053
2795.65356,0.02027
2793.59339,0.02021
2791.53322,0.02029
2789.47305,0.02032
2787.41287,0.02014
2785.35270,0.01981
2783.29253,0.01960
2781.23236,0.01968
2779.17219,0.01989
2777.11201,0.01980
2775.05184,0.01950
2772.99167,0.01941
2770.93150,0.01931
2768.87133,0.01907
2766.81115,0.01893
2764.75098,0.01900
2762.69081,0.01900
2760.63064,0.01878
2758.57046,0.01855
2756.51029,0.01858
2754.45012,0.01879
2752.38995,0.01893
2750.32978,0.01886
2748.26960,0.01856
2746.20943,0.01814
2744.14926,0.01780
2742.08909,0.01777
2740.02892,0.01804
2737.96874,0.01822
2735.90857,0.01806
2733.84840,0.01774
2731.78823,0.01759
2729.72805,0.01768
2727.66788,0.01769
2725.60771,0.01738
2723.54754,0.01715
2721.48737,0.01721
2719.42719,0.01720
2717.36702,0.01689
2715.30685,0.01659
2713.24668,0.01651
2711.18651,0.01648
2709.12633,0.01637
2707.06616,0.01629
2705.00599,0.01624
2702.94582,0.01615
2700.88565,0.01604
2698.82547,0.01579
2696.76530,0.01560
2694.70513,0.01564
2692.64496,0.01577
2690.58478,0.01580
2688.52461,0.01572
2686.46444,0.01548
2684.40427,0.01516
2682.34410,0.01501
2680.28392,0.01500
2678.22375,0.01493
2676.16358,0.01474
2674.10341,0.01458
2672.04324,0.01446
2669.98306,0.01430
2667.92289,0.01417
2665.86272,0.01415
2663.80255,0.01414
2661.74238,0.01405
2659.68220,0.01391
2657.62203,0.01378
2655.56186,0.01370
2653.50169,0.01369
2651.44151,0.01365
2649.38134,0.01349
2647.32117,0.01332
2645.26100,0.01311
2643.20083,0.01285
2641.14065,0.01263
2639.08048,0.01241
2637.02031,0.01229
2634.96014,0.01229
2632.89997,0.01228
2630.83979,0.01213
2628.77962,0.01182
2626.71945,0.01160
2624.65928,0.01162
2622.59910,0.01173
2620.53893,0.01168
2618.47876,0.01151
2616.41859,0.01142
2614.35842,0.01128
2612.29824,0.01107
2610.23807,0.01094
2608.17790,0.01085
2606.11773,0.01075
2604.05756,0.01075
2601.99738,0.01087
2599.93721,0.01102
2597.87704,0.01114
2595.81687,0.01120
2593.75670,0.01104
2591.69652,0.01064
2589.63635,0.01030
2587.57618,0.01022
2585.51601,0.01009
2583.45583,0.00981
2581.39566,0.00967
2579.33549,0.00960
2577.27532,0.00956
2575.21515,0.00971
2573.15497,0.00987
2571.09480,0.00997
2569.03463,0.01025
2566.97446,0.01047
2564.91429,0.01021
2562.85411,0.00990
2560.79394,0.00994
2558.73377,0.01005
2556.67360,0.00988
2554.61342,0.00964
2552.55325,0.00970
2550.49308,0.00997
2548.43291,0.00995
2546.37274,0.00952
2544.31256,0.00926
2542.25239,0.00950
2540.19222,0.00997
2538.13205,0.01028
2536.07188,0.01017
2534.01170,0.00986
2531.95153,0.00994
2529.89136,0.01004
2527.83119,0.00970
2525.77102,0.00963
2523.71084,0.01010
2521.65067,0.01047
2519.59050,0.01042
2517.53033,0.01030
2515.47015,0.01052
2513.40998,0.01069
2511.34981,0.01052
2509.28964,0.01021
2507.22947,0.00991
2505.16929,0.00966
2503.10912,0.00959
2501.04895,0.00985
2498.98878,0.01005
2496.92861,0.01007
2494.86843,0.01027
2492.80826,0.01057
2490.74809,0.01092
2488.68792,0.01114
2486.62775,0.01093
2484.56757,0.01061
2482.50740,0.01054
2480.44723,0.01070
2478.38706,0.01071
2476.32688,0.01042
2474.26671,0.01023
2472.20654,0.01014
2470.14637,0.00990
2468.08620,0.00996
2466.02602,0.01038
2463.96585,0.01063
2461.90568,0.01064
2459.84551,0.01060
2457.78534,0.01063
2455.72516,0.01070
2453.66499,0.01069
2451.60482,0.01064
2449.54465,0.01054
2447.48447,0.01036
2445.42430,0.01034
2443.36413,0.01075
2441.30396,0.01118
2439.24379,0.01112
2437.18361,0.01084
2435.12344,0.01093
2433.06327,0.01120
2431.00310,0.01133
2428.94293,0.01133
2426.88275,0.01111
2424.82258,0.01086
2422.76241,0.01094
2420.70224,0.01106
2418.64207,0.01084
2416.58189,0.01038
2414.52172,0.01017
2412.46155,0.01048
2410.40138,0.01083
2408.34120,0.01070
2406.28103,0.01022
2404.22086,0.00983
2402.16069,0.00989
2400.10052,0.01020
2398.04034,0.01017
2395.98017,0.01015
2393.92000,0.01038
2391.85983,0.01082
2389.79966,0.01117
2387.73948,0.01109
2385.67931,0.01063
2383.61914,0.01016
2381.55897,0.00988
2379.49880,0.00980
2377.43862,0.00982
2375.37845,0.00993
2373.31828,0.01016
2371.25811,0.01046
2369.19793,0.01042
2367.13776,0.00962
2365.07759,0.00881
2363.01742,0.00932
2360.95725,0.01073
2358.89707,0.01137
2356.83690,0.01098
2354.77673,0.01062
2352.71656,0.01076
2350.65639,0.01098
2348.59621,0.01065
2346.53604,0.01006
2344.47587,0.01015
2342.41570,0.01095
2340.35552,0.01131
2338.29535,0.01075
2336.23518,0.00987
2334.17501,0.00975
2332.11484,0.01045
2330.05466,0.01105
2327.99449,0.01142
2325.93432,0.01175
2323.87415,0.01151
2321.81398,0.01075
2319.75380,0.01038
2317.69363,0.01072
2315.63346,0.01132
2313.57329,0.01155
2311.51312,0.01115
2309.45294,0.01059
2307.39277,0.01039
2305.33260,0.01046
2303.27243,0.01036
2301.21225,0.00998
2299.15208,0.00948
2297.09191,0.00905
2295.03174,0.00891
2292.97157,0.00908
2290.91139,0.00946
2288.85122,0.00979
2286.79105,0.00950
2284.73088,0.00863
2282.67071,0.00814
2280.61053,0.00838
2278.55036,0.00859
2276.49019,0.00837
2274.43002,0.00820
2272.36984,0.00827
2270.30967,0.00824
2268.24950,0.00819
2266.18933,0.00846
2264.12916,0.00895
2262.06898,0.00941
2260.00881,0.00946
2257.94864,0.00915
2255.88847,0.00912
2253.82830,0.00890
2251.76812,0.00809
2249.70795,0.00742
2247.64778,0.00740
2245.58761,0.00759
2243.52744,0.00747
2241.46726,0.00728
2239.40709,0.00752
2237.34692,0.00787
2235.28675,0.00752
2233.22657,0.00676
2231.16640,0.00629
2229.10623,0.00575
2227.04606,0.00511
2224.98589,0.00532
2222.92571,0.00639
2220.86554,0.00713
2218.80537,0.00736
2216.74520,0.00728
2214.68503,0.00639
2212.62485,0.00518
2210.56468,0.00519
2208.50451,0.00600
2206.44434,0.00592
2204.38417,0.00545
2202.32399,0.00645
2200.26382,0.00822
2198.20365,0.00834
2196.14348,0.00722
2194.08330,0.00615
2192.02313,0.00510
2189.96296,0.00401
2187.90279,0.00335
2185.84262,0.00389
2183.78244,0.00511
2181.72227,0.00576
2179.66210,0.00558
2177.60193,0.00518
2175.54176,0.00504
2173.48158,0.00491
2171.42141,0.00476
2169.36124,0.00492
2167.30107,0.00516
2165.24089,0.00466
2163.18072,0.00342
2161.12055,0.00279
2159.06038,0.00258
2157.00021,0.00132
2154.94003,0.00033
2152.87986,0.00142
2150.81969,0.00348
2148.75952,0.00451
2146.69935,0.00419
2144.63917,0.00393
2142.57900,0.00442
2140.51883,0.00458
2138.45866,0.00448
2136.39849,0.00499
2134.33831,0.00540
2132.27814,0.00488
2130.21797,0.00408
2128.15780,0.00383
2126.09762,0.00390
2124.03745,0.00393
2121.97728,0.00438
2119.91711,0.00529
2117.85694,0.00595
2115.79676,0.00595
2113.73659,0.00515
2111.67642,0.00420
2109.61625,0.00394
2107.55608,0.00423
2105.49590,0.00475
2103.43573,0.00551
2101.37556,0.00580
2099.31539,0.00512
2097.25521,0.00446
2095.19504,0.00487
2093.13487,0.00584
2091.07470,0.00599
2089.01453,0.00508
2086.95435,0.00408
2084.89418,0.00381
2082.83401,0.00426
2080.77384,0.00505
2078.71367,0.00567
2076.65349,0.00535
2074.59332,0.00406
2072.53315,0.00279
2070.47298,0.00265
2068.41281,0.00343
2066.35263,0.00379
2064.29246,0.00365
2062.23229,0.00366
2060.17212,0.00366
2058.11194,0.00368
2056.05177,0.00368
2053.99160,0.00316
2051.93143,0.00270
2049.87126,0.00341
2047.81108,0.00468
2045.75091,0.00500
2043.69074,0.00469
2041.63057,0.00507
2039.57040,0.00549
2037.51022,0.00461
2035.45005,0.00349
2033.38988,0.00289
2031.32971,0.00239
2029.26954,0.00244
2027.20936,0.00232
2025.14919,0.00096
2023.08902,0.00000
2021.02885,0.00067
2018.96867,0.00146
2016.90850,0.00117
2014.84833,0.00082
2012.78816,0.00127
2010.72799,0.00135
2008.66781,0.00092
2006.60764,0.00144
2004.54747,0.00222
2002.48730,0.00237
2000.42713,0.00267
1998.36695,0.00307
1996.30678,0.00266
1994.24661,0.00180
1992.18644,0.00140
1990.12626,0.00105
1988.06609,0.00059
1986.00592,0.00136
1983.94575,0.00341
1981.88558,0.00463
1979.82540,0.00364
1977.76523,0.00205
1975.70506,0.00136
1973.64489,0.00060
1971.58472,0.00000
1969.52454,0.00072
1967.46437,0.00212
1965.40420,0.00328
1963.34403,0.00355
1961.28386,0.00259
1959.22368,0.00168
1957.16351,0.00168
1955.10334,0.00213
1953.04317,0.00269
1950.98299,0.00308
1948.92282,0.00323
1946.86265,0.00301
1944.80248,0.00234
1942.74231,0.00190
1940.68213,0.00196
1938.62196,0.00199
1936.56179,0.00189
1934.50162,0.00199
1932.44145,0.00234
1930.38127,0.00236
1928.32110,0.00209
1926.26093,0.00210
1924.20076,0.00206
1922.14059,0.00143
1920.08041,0.00089
1918.02024,0.00127
1915.96007,0.00195
1913.89990,0.00202
1911.83972,0.00177
1909.77955,0.00194
1907.71938,0.00227
1905.65921,0.00210
1903.59904,0.00192
1901.53886,0.00238
1899.47869,0.00321
1897.41852,0.00383
1895.35835,0.00358
1893.29818,0.00249
1891.23800,0.00169
1889.17783,0.00185
1887.11766,0.00237
1885.05749,0.00254
1882.99731,0.00228
1880.93714,0.00198
1878.87697,0.00190
1876.81680,0.00193
1874.75663,0.00206
1872.69645,0.00231
1870.63628,0.00246
1868.57611,0.00241
1866.51594,0.00238
1864.45577,0.00227
1862.39559,0.00191
1860.33542,0.00157
1858.27525,0.00153
1856.21508,0.00170
1854.15491,0.00185
1852.09473,0.00194
1850.03456,0.00198
1847.97439,0.00201
1845.91422,0.00218
1843.85404,0.00239
1841.79387,0.00240
1839.73370,0.00220
1837.67353,0.00205
1835.61336,0.00223
1833.55318,0.00269
1831.49301,0.00310
1829.43284,0.00336
1827.37267,0.00341
1825.31250,0.00321
1823.25232,0.00291
1821.19215,0.00271
1819.13198,0.00253
1817.07181,0.00231
1815.01163,0.00221
1812.95146,0.00239
1810.89129,0.00275
1808.83112,0.00300
1806.77095,0.00302
1804.71077,0.00289
1802.65060,0.00273
1800.59043,0.00268
1798.53026,0.00280
1796.47009,0.00303
1794.40991,0.00325
1792.34974,0.00343
1790.28957,0.00341
1788.22940,0.00318
1786.16923,0.00298
1784.10905,0.00306
1782.04888,0.00330
1779.98871,0.00332
1777.92854,0.00319
1775.86836,0.00329
1773.80819,0.00373
1771.74802,0.00407
1769.68785,0.00391
1767.62768,0.00360
1765.56750,0.00354
1763.50733,0.00372
1761.44716,0.00406
1759.38699,0.00445
1757.32682,0.00474
1755.26664,0.00476
1753.20647,0.00466
1751.14630,0.00478
1749.08613,0.00503
1747.02596,0.00499
1744.96578,0.00468
1742.90561,0.00460
1740.84544,0.00502
1738.78527,0.00554
1736.72509,0.00569
1734.66492,0.00571
1732.60475,0.00595
1730.54458,0.00617
1728.48441,0.00622
1726.42423,0.00626
1724.36406,0.00644
1722.30389,0.00663
1720.24372,0.00675
1718.18355,0.00721
1716.12337,0.00809
1714.06320,0.00853
1712.00303,0.00831
1709.94286,0.00791
1707.88268,0.00773
1705.82251,0.00780
1703.76234,0.00795
1701.70217,0.00838
1699.64200,0.00941
1697.58182,0.01042
1695.52165,0.01087
1693.46148,0.01092
1691.40131,0.01102
1689.34114,0.01142
1687.28096,0.01204
1685.22079,0.01284
1683.16062,0.01359
1681.10045,0.01384
1679.04028,0.01396
1676.98010,0.01423
1674.91993,0.01453
1672.85976,0.01470
1670.79959,0.01487
1668.73941,0.01534
1666.67924,0.01593
1664.61907,0.01636
1662.55890,0.01668
1660.49873,0.01688
1658.43855,0.01698
1656.37838,0.01717
1654.31821,0.01767
1652.25804,0.01815
1650.19787,0.01817
1648.13769,0.01819
1646.07752,0.01831
1644.01735,0.01802
1641.95718,0.01751
1639.89701,0.01714
1637.83683,0.01705
1635.77666,0.01722
1633.71649,0.01727
1631.65632,0.01708
1629.59614,0.01693
1627.53597,0.01683
1625.47580,0.01662
1623.41563,0.01639
1621.35546,0.01631
1619.29528,0.01639
1617.23511,0.01660
1615.17494,0.01658
1613.11477,0.01613
1611.05460,0.01572
1608.99442,0.01562
1606.93425,0.01559
1604.87408,0.01534
1602.81391,0.01492
1600.75373,0.01448
1598.69356,0.01412
1596.63339,0.01379
1594.57322,0.01330
1592.51305,0.01265
1590.45287,0.01202
1588.39270,0.01161
1586.33253,0.01133
1584.27236,0.01090
1582.21219,0.01031
1580.15201,0.00980
1578.09184,0.00952
1576.03167,0.00935
1573.97150,0.00911
1571.91133,0.00888
1569.85115,0.00871
1567.79098,0.00833
1565.73081,0.00765
1563.67064,0.00691
1561.61046,0.00636
1559.55029,0.00645
1557.49012,0.00697
1555.42995,0.00683
1553.36978,0.00608
1551.30960,0.00541
1549.24943,0.00508
1547.18926,0.00487
1545.12909,0.00468
1543.06892,0.00466
1541.00874,0.00481
1538.94857,0.00462
1536.88840,0.00415
1534.82823,0.00374
1532.76805,0.00344
1530.70788,0.00333
1528.64771,0.00346
1526.58754,0.00364
1524.52737,0.00378
1522.46719,0.00386
1520.40702,0.00349
1518.34685,0.00286
1516.28668,0.00241
1514.22651,0.00215
1512.16633,0.00205
1510.10616,0.00213
1508.04599,0.00238
1505.98582,0.00252
1503.92565,0.00227
1501.86547,0.00190
1499.80530,0.00169
1497.74513,0.00172
1495.68496,0.00171
1493.62478,0.00154
1491.56461,0.00154
1489.50444,0.00183
1487.44427,0.00197
1485.38410,0.00186
1483.32392,0.00186
1481.26375,0.00200
1479.20358,0.00203
1477.14341,0.00204
1475.08324,0.00233
1473.02306,0.00274
1470.96289,0.00283
1468.90272,0.00264
1466.84255,0.00253
1464.78238,0.00271
1462.72220,0.00299
1460.66203,0.00328
1458.60186,0.00370
1456.54169,0.00405
1454.48151,0.00402
1452.42134,0.00377
1450.36117,0.00352
1448.30100,0.00332
1446.24083,0.00323
1444.18065,0.00322
1442.12048,0.00319
1440.06031,0.00310
1438.00014,0.00317
1435.93997,0.00345
1433.87979,0.00362
1431.81962,0.00365
1429.75945,0.00387
1427.69928,0.00420
1425.63910,0.00438
1423.57893,0.00443
1421.51876,0.00453
1419.45859,0.00480
1417.39842,0.00509
1415.33824,0.00510
1413.27807,0.00496
1411.21790,0.00482
1409.15773,0.00469
1407.09756,0.00463
1405.03738,0.00462
1402.97721,0.00446
1400.91704,0.00426
1398.85687,0.00421
1396.79670,0.00427
1394.73652,0.00429
1392.67635,0.00420
1390.61618,0.00407
1388.55601,0.00395
1386.49583,0.00380
1384.43566,0.00366
1382.37549,0.00366
1380.31532,0.00377
1378.25515,0.00386
1376.19497,0.00396
1374.13480,0.00408
1372.07463,0.00408
1370.01446,0.00390
1367.95429,0.00367
1365.89411,0.00354
1363.83394,0.00353
1361.77377,0.00349
1359.71360,0.00325
1357.65343,0.00297
1355.59325,0.00280
1353.53308,0.00274
1351.47291,0.00270
1349.41274,0.00259
1347.35256,0.00241
1345.29239,0.00230
1343.23222,0.00227
1341.17205,0.00226
1339.11188,0.00232
1337.05170,0.00236
1334.99153,0.00235
1332.93136,0.00229
1330.87119,0.00217
1328.81102,0.00204
1326.75084,0.00200
1324.69067,0.00206
1322.63050,0.00218
1320.57033,0.00229
1318.51015,0.00233
1316.44998,0.00232
1314.38981,0.00228
1312.32964,0.00228
1310.26947,0.00234
1308.20929,0.00233
1306.14912,0.00224
1304.08895,0.00224
1302.02878,0.00236
1299.96861,0.00247
1297.90843,0.00250
1295.84826,0.00256
1293.78809,0.00271
1291.72792,0.00286
1289.66775,0.00295
1287.60757,0.00305
1285.54740,0.00311
1283.48723,0.00305
1281.42706,0.00297
1279.36688,0.00300
1277.30671,0.00319
1275.24654,0.00338
1273.18637,0.00343
1271.12620,0.00345
1269.06602,0.00348
1267.00585,0.00344
1264.94568,0.00339
1262.88551,0.00346
1260.82534,0.00364
1258.76516,0.00381
1256.70499,0.00376
1254.64482,0.00353
1252.58465,0.00343
1250.52447,0.00350
1248.46430,0.00349
1246.40413,0.00342
1244.34396,0.00342
1242.28379,0.00329
1240.22361,0.00300
1238.16344,0.00279
1236.10327,0.00263
1234.04310,0.00247
1231.98293,0.00232
1229.92275,0.00206
1227.86258,0.00168
1225.80241,0.00130
1223.74224,0.00106
1221.68207,0.00106
1219.62189,0.00110
1217.56172,0.00090
1215.50155,0.00063
1213.44138,0.00054
1211.38120,0.00043
1209.32103,0.00018
1207.26086,0.00000
1205.20069,0.00000
1203.14052,0.00012
1201.08034,0.00022
1199.02017,0.00026
1196.96000,0.00026
1194.89983,0.00035
1192.83966,0.00063
1190.77948,0.00096
1188.71931,0.00128
1186.65914,0.00173
1184.59897,0.00238
1182.53880,0.00306
1180.47862,0.00372
1178.41845,0.00458
1176.35828,0.00558
1174.29811,0.00657
1172.23793,0.00748
1170.17776,0.00833
1168.11759,0.00925
1166.05742,0.01019
1163.99725,0.01103
1161.93707,0.01195
1159.87690,0.01297
1157.81673,0.01383
1155.75656,0.01447
1153.69639,0.01518
1151.63621,0.01618
1149.57604,0.01731
1147.51587,0.01841
1145.45570,0.01947
1143.39552,0.02058
1141.33535,0.02176
1139.27518,0.02300
1137.21501,0.02414
1135.15484,0.02523
1133.09466,0.02644
1131.03449,0.02775
1128.97432,0.02904
1126.91415,0.03024
1124.85398,0.03147
1122.79380,0.03278
1120.73363,0.03406
1118.67346,0.03541
1116.61329,0.03692
1114.55312,0.03838
1112.49294,0.03961
1110.43277,0.04080
1108.37260,0.04209
1106.31243,0.04335
1104.25225,0.04467
1102.19208,0.04619
1100.13191,0.04760
1098.07174,0.04879
1096.01157,0.05003
1093.95139,0.05125
1091.89122,0.05229
1089.83105,0.05323
1087.77088,0.05428
1085.71071,0.05554
1083.65053,0.05684
1081.59036,0.05792
1079.53019,0.05868
1077.47002,0.05936
1075.40985,0.06016
1073.34967,0.06093
1071.28950,0.06141
1069.22933,0.06159
1067.16916,0.06176
1065.10898,0.06193
1063.04881,0.06171
1060.98864,0.06119
1058.92847,0.06068
1056.86830,0.06010
1054.80812,0.05939
1052.74795,0.05866
1050.68778,0.05791
1048.62761,0.05701
1046.56744,0.05588
1044.50726,0.05476
1042.44709,0.05372
1040.38692,0.05266
1038.32675,0.05137
1036.26657,0.04980
1034.20640,0.04843
1032.14623,0.04745
1030.08606,0.04628
1028.02589,0.04481
1025.96571,0.04349
1023.90554,0.04261
1021.84537,0.04183
1019.78520,0.04077
1017.72503,0.03958
1015.66485,0.03846
1013.60468,0.03744
1011.54451,0.03679
1009.48434,0.03661
1007.42417,0.03652
1005.36399,0.03632
1003.30382,0.03618
1001.24365,0.03622
999.18348,0.03645
997.12330,0.03692
995.06313,0.03775
993.00296,0.03876
990.94279,0.03971
988.88262,0.04055
986.82244,0.04105
984.76227,0.04126
982.70210,0.04141
980.64193,0.04128
978.58176,0.04059
976.52158,0.03942
974.46141,0.03824
972.40124,0.03712
970.34107,0.03563
968.28089,0.03378
966.22072,0.03188
964.16055,0.03025
962.10038,0.02898
960.04021,0.02768
957.98003,0.02633
955.91986,0.02524
953.85969,0.02426
951.79952,0.02319
949.73935,0.02229
947.67917,0.02168
945.61900,0.02118
943.55883,0.02066
941.49866,0.02007
939.43849,0.01939
937.37831,0.01887
935.31814,0.01875
933.25797,0.01877
931.19780,0.01851
929.13762,0.01803
927.07745,0.01762
925.01728,0.01736
922.95711,0.01713
920.89694,0.01685
918.83676,0.01648
916.77659,0.01582
914.71642,0.01523
912.65625,0.01509
910.59608,0.01476
908.53590,0.01399
906.47573,0.01347
904.41556,0.01336
902.35539,0.01335
900.29522,0.01320
898.23504,0.01305
896.17487,0.01323
894.11470,0.01366
892.05453,0.01391
889.99435,0.01391
887.93418,0.01403
885.87401,0.01440
883.81384,0.01488
881.75367,0.01540
879.69349,0.01577
877.63332,0.01590
875.57315,0.01626
873.51298,0.01708
871.45281,0.01770
869.39263,0.01788
867.33246,0.01791
865.27229,0.01787
863.21212,0.01794
861.15194,0.01826
859.09177,0.01848
857.03160,0.01817
854.97143,0.01762
852.91126,0.01712
850.85108,0.01666
848.79091,0.01609
846.73074,0.01529
844.67057,0.01455
842.61040,0.01402
840.55022,0.01355
838.49005,0.01298
836.42988,0.01233
834.36971,0.01170
832.30954,0.01104
830.24936,0.01038
828.18919,0.00979
826.12902,0.00914
824.06885,0.00848
822.00867,0.00808
819.94850,0.00803
817.88833,0.00783
815.82816,0.00730
813.76799,0.00694
811.70781,0.00673
809.64764,0.00647
807.58747,0.00617
805.52730,0.00579
803.46713,0.00548
801.40695,0.00518
799.34678,0.00475
797.28661,0.00455
795.22644,0.00474
793.16627,0.00505
791.10609,0.00500
789.04592,0.00456
786.98575,0.00440
784.92558,0.00447
782.86540,0.00442
780.80523,0.00441
778.74506,0.00419
776.68489,0.00359
774.62472,0.00315
772.56454,0.00314
770.50437,0.00329
768.44420,0.00338
766.38403,0.00353
764.32386,0.00399
762.26368,0.00406
760.20351,0.00336
758.14334,0.00281
756.08317,0.00292
754.02299,0.00296
751.96282,0.00255
749.90265,0.00229
747.84248,0.00244
745.78231,0.00273
743.72213,0.00295
741.66196,0.00270
739.60179,0.00215
737.54162,0.00212
735.48145,0.00251
733.42127,0.00261
731.36110,0.00258
729.30093,0.00257
727.24076,0.00236
725.18059,0.00242
723.12041,0.00258
721.06024,0.00234
719.00007,0.00225
716.93990,0.00239
714.87972,0.00249
712.81955,0.00253
710.75938,0.00230
708.69921,0.00181
706.63904,0.00162
704.57886,0.00207
702.51869,0.00269
700.45852,0.00286
698.39835,0.00262
696.33818,0.00213
694.27800,0.00152
692.21783,0.00122
690.15766,0.00145
688.09749,0.00170
686.03731,0.00185
683.97714,0.00256
681.91697,0.00342
679.85680,0.00322
677.79663,0.00231
675.73645,0.00193
673.67628,0.00193
671.61611,0.00157
669.55594,0.00124
667.49577,0.00192
665.43559,0.00314
663.37542,0.00419
661.31525,0.00450
659.25508,0.00399
657.19491,0.00318
655.13473,0.00269
653.07456,0.00254
651.01439,0.00263
648.95422,0.00336
646.89404,0.00453
644.83387,0.00493
642.77370,0.00382
640.71353,0.00224
638.65336,0.00184
636.59318,0.00249
634.53301,0.00287
632.47284,0.00212
630.41267,0.00061
628.35250,0.00000
626.29232,0.00147
624.23215,0.00383
622.17198,0.00427
620.11181,0.00254
618.05164,0.00131
615.99146,0.00110
613.93129,0.00063
611.87112,0.00034
609.81095,0.00018
607.75077,0.00016
605.69060,0.00039
603.63043,0.00077
601.57026,0.00084
599.51009,0.00000
