3996.73391,0.00144
3994.67373,0.00116
3992.61356,0.00095
3990.55339,0.00069
3988.49322,0.00058
3986.43305,0.00082
3984.37287,0.00101
3982.31270,0.00073
3980.25253,0.00036
3978.19236,0.00059
3976.13219,0.00112
3974.07201,0.00108
3972.01184,0.00047
3969.95167,0.00004
3967.89150,0.00000
3965.83133,0.00020
3963.77115,0.00069
3961.71098,0.00130
3959.65081,0.00155
3957.59064,0.00144
3955.53046,0.00131
3953.47029,0.00122
3951.41012,0.00107
3949.34995,0.00094
3947.28978,0.00103
3945.22960,0.00115
3943.16943,0.00107
3941.10926,0.00085
3939.04909,0.00065
3936.98892,0.00069
3934.92874,0.00089
3932.86857,0.00112
3930.80840,0.00125
3928.74823,0.00096
3926.68805,0.00042
3924.62788,0.00017
3922.56771,0.00013
3920.50754,0.00015
3918.44737,0.00044
3916.38719,0.00078
3914.32702,0.00083
3912.26685,0.00082
3910.20668,0.00094
3908.14651,0.00111
3906.08633,0.00124
3904.02616,0.00126
3901.96599,0.00123
3899.90582,0.00126
3897.84565,0.00123
3895.78547,0.00107
3893.72530,0.00087
3891.66513,0.00063
3889.60496,0.00034
3887.54478,0.00012
3885.48461,0.00038
3883.42444,0.00117
3881.36427,0.00174
3879.30410,0.00160
3877.24392,0.00108
3875.18375,0.00074
3873.12358,0.00064
3871.06341,0.00067
3869.00324,0.00078
3866.94306,0.00093
3864.88289,0.00117
3862.82272,0.00139
3860.76255,0.00130
3858.70237,0.00109
3856.64220,0.00118
3854.58203,0.00134
3852.52186,0.00107
3850.46169,0.00061
3848.40151,0.00033
3846.34134,0.00013
3844.28117,0.00014
3842.22100,0.00047
3840.16083,0.00083
3838.10065,0.00106
3836.04048,0.00114
3833.98031,0.00110
3831.92014,0.00107
3829.85997,0.00106
3827.79979,0.00110
3825.73962,0.00117
3823.67945,0.00103
3821.61928,0.00063
3819.55910,0.00043
3817.49893,0.00053
3815.43876,0.00065
3813.37859,0.00071
3811.31842,0.00073
3809.25824,0.00066
3807.19807,0.00039
3805.13790,0.00008
3803.07773,0.00000
3801.01756,0.00023
3798.95738,0.00051
3796.89721,0.00062
3794.83704,0.00067
3792.77687,0.00057
3790.71670,0.00034
3788.65652,0.00027
3786.59635,0.00035
3784.53618,0.00044
3782.47601,0.00077
3780.41583,0.00120
3778.35566,0.00136
3776.29549,0.00123
3774.23532,0.00109
3772.17515,0.00121
3770.11497,0.00149
3768.05480,0.00148
3765.99463,0.00116
3763.93446,0.00096
3761.87429,0.00113
3759.81411,0.00141
3757.75394,0.00142
3755.69377,0.00114
3753.63360,0.00072
3751.57342,0.00036
3749.51325,0.00040
3747.45308,0.00078
3745.39291,0.00149
3743.33274,0.00208
3741.27256,0.00193
3739.21239,0.00135
3737.15222,0.00100
3735.09205,0.00129
3733.03188,0.00186
3730.97170,0.00189
3728.91153,0.00142
3726.85136,0.00111
3724.79119,0.00116
3722.73102,0.00122
3720.67084,0.00110
3718.61067,0.00101
3716.55050,0.00107
3714.49033,0.00114
3712.43015,0.00127
3710.36998,0.00142
3708.30981,0.00139
3706.24964,0.00131
3704.18947,0.00119
3702.12929,0.00104
3700.06912,0.00110
3698.00895,0.00125
3695.94878,0.00126
3693.88861,0.00116
3691.82843,0.00116
3689.76826,0.00141
3687.70809,0.00182
3685.64792,0.00216
3683.58775,0.00215
3681.52757,0.00174
3679.46740,0.00132
3677.40723,0.00145
3675.34706,0.00229
3673.28688,0.00306
3671.22671,0.00313
3669.16654,0.00296
3667.10637,0.00305
3665.04620,0.00347
3662.98602,0.00387
3660.92585,0.00406
3658.86568,0.00427
3656.80551,0.00451
3654.74534,0.00451
3652.68516,0.00441
3650.62499,0.00473
3648.56482,0.00546
3646.50465,0.00590
3644.44447,0.00605
3642.38430,0.00642
3640.32413,0.00708
3638.26396,0.00782
3636.20379,0.00843
3634.14361,0.00882
3632.08344,0.00906
3630.02327,0.00948
3627.96310,0.01025
3625.90293,0.01088
3623.84275,0.01108
3621.78258,0.01122
3619.72241,0.01172
3617.66224,0.01249
3615.60207,0.01295
3613.54189,0.01314
3611.48172,0.01364
3609.42155,0.01433
3607.36138,0.01463
3605.30120,0.01456
3603.24103,0.01467
3601.18086,0.01533
3599.12069,0.01633
3597.06052,0.01717
3595.00034,0.01795
3592.94017,0.01903
3590.88000,0.02004
3588.81983,0.02058
3586.75966,0.02067
3584.69948,0.02056
3582.63931,0.02047
3580.57914,0.02060
3578.51897,0.02121
3576.45879,0.02228
3574.39862,0.02315
3572.33845,0.02329
3570.27828,0.02314
3568.21811,0.02353
3566.15793,0.02448
3564.09776,0.02530
3562.03759,0.02571
3559.97742,0.02589
3557.91725,0.02611
3555.85707,0.02666
3553.79690,0.02754
3551.73673,0.02820
3549.67656,0.02843
3547.61639,0.02883
3545.55621,0.02955
3543.49604,0.03017
3541.43587,0.03062
3539.37570,0.03110
3537.31552,0.03167
3535.25535,0.03223
3533.19518,0.03264
3531.13501,0.03286
3529.07484,0.03322
3527.01466,0.03385
3524.95449,0.03440
3522.89432,0.03475
3520.83415,0.03508
3518.77398,0.03549
3516.71380,0.03586
3514.65363,0.03611
3512.59346,0.03634
3510.53329,0.03685
3508.47312,0.03781
3506.41294,0.03880
3504.35277,0.03930
3502.29260,0.03941
3500.23243,0.03957
3498.17225,0.03999
3496.11208,0.04049
3494.05191,0.04103
3491.99174,0.04176
3489.93157,0.04262
3487.87139,0.04328
3485.81122,0.04340
3483.75105,0.04310
3481.69088,0.04314
3479.63071,0.04375
3477.57053,0.04446
3475.51036,0.04508
3473.45019,0.04547
3471.39002,0.04535
3469.32984,0.04533
3467.26967,0.04614
3465.20950,0.04709
3463.14933,0.04745
3461.08916,0.04767
3459.02898,0.04800
3456.96881,0.04825
3454.90864,0.04840
3452.84847,0.04871
3450.78830,0.04941
3448.72812,0.05026
3446.66795,0.05068
3444.60778,0.05057
3442.54761,0.05054
3440.48744,0.05082
3438.42726,0.05086
3436.36709,0.05061
3434.30692,0.05072
3432.24675,0.05147
3430.18657,0.05242
3428.12640,0.05312
3426.06623,0.05338
3424.00606,0.05328
3421.94589,0.05341
3419.88571,0.05400
3417.82554,0.05457
3415.76537,0.05481
3413.70520,0.05476
3411.64503,0.05466
3409.58485,0.05479
3407.52468,0.05529
3405.46451,0.05581
3403.40434,0.05591
3401.34416,0.05576
3399.28399,0.05575
3397.22382,0.05591
3395.16365,0.05616
3393.10348,0.05650
3391.04330,0.05692
3388.98313,0.05707
3386.92296,0.05693
3384.86279,0.05705
3382.80262,0.05725
3380.74244,0.05742
3378.68227,0.05799
3376.62210,0.05851
3374.56193,0.05864
3372.50176,0.05883
3370.44158,0.05914
3368.38141,0.05916
3366.32124,0.05890
3364.26107,0.05875
3362.20089,0.05892
3360.14072,0.05935
3358.08055,0.05977
3356.02038,0.06005
3353.96021,0.06033
3351.90003,0.06067
3349.83986,0.06076
3347.77969,0.06033
3345.71952,0.05981
3343.65935,0.05991
3341.59917,0.06048
3339.53900,0.06095
3337.47883,0.06116
3335.41866,0.06111
3333.35849,0.06079
3331.29831,0.06049
3329.23814,0.06047
3327.17797,0.06066
3325.11780,0.06089
3323.05762,0.06116
3320.99745,0.06140
3318.93728,0.06149
3316.87711,0.06154
3314.81694,0.06170
3312.75676,0.06182
3310.69659,0.06171
3308.63642,0.06152
3306.57625,0.06153
3304.51608,0.06166
3302.45590,0.06180
3300.39573,0.06199
3298.33556,0.06209
3296.27539,0.06199
3294.21521,0.06198
3292.15504,0.06220
3290.09487,0.06225
3288.03470,0.06198
3285.97453,0.06186
3283.91435,0.06214
3281.85418,0.06244
3279.79401,0.06220
3277.73384,0.06169
3275.67367,0.06167
3273.61349,0.06215
3271.55332,0.06258
3269.49315,0.06275
3267.43298,0.06285
3265.37281,0.06288
3263.31263,0.06263
3261.25246,0.06229
3259.19229,0.06217
3257.13212,0.06221
3255.07194,0.06213
3253.01177,0.06188
3250.95160,0.06169
3248.89143,0.06179
3246.83126,0.06213
3244.77108,0.06247
3242.71091,0.06259
3240.65074,0.06257
3238.59057,0.06264
3236.53040,0.06268
3234.47022,0.06249
3232.41005,0.06233
3230.34988,0.06226
3228.28971,0.06222
3226.22954,0.06224
3224.16936,0.06218
3222.10919,0.06203
3220.04902,0.06189
3217.98885,0.06181
3215.92867,0.06187
3213.86850,0.06190
3211.80833,0.06184
3209.74816,0.06179
3207.68799,0.06159
3205.62781,0.06111
3203.56764,0.06072
3201.50747,0.06082
3199.44730,0.06121
3197.38713,0.06133
3195.32695,0.06112
3193.26678,0.06104
3191.20661,0.06113
3189.14644,0.06091
3187.08626,0.06032
3185.02609,0.05998
3182.96592,0.06016
3180.90575,0.06035
3178.84558,0.06020
3176.78540,0.05993
3174.72523,0.05978
3172.66506,0.05968
3170.60489,0.05956
3168.54472,0.05943
3166.48454,0.05938
3164.42437,0.05921
3162.36420,0.05872
3160.30403,0.05834
3158.24386,0.05823
3156.18368,0.05808
3154.12351,0.05810
3152.06334,0.05819
3150.00317,0.05786
3147.94299,0.05727
3145.88282,0.05685
3143.82265,0.05667
3141.76248,0.05661
3139.70231,0.05665
3137.64213,0.05649
3135.58196,0.05601
3133.52179,0.05555
3131.46162,0.05535
3129.40145,0.05518
3127.34127,0.05485
3125.28110,0.05469
3123.22093,0.05482
3121.16076,0.05479
3119.10058,0.05431
3117.04041,0.05371
3114.98024,0.05341
3112.92007,0.05330
3110.85990,0.05319
3108.79972,0.05311
3106.73955,0.05289
3104.67938,0.05239
3102.61921,0.05193
3100.55904,0.05182
3098.49886,0.05195
3096.43869,0.05204
3094.37852,0.05179
3092.31835,0.05134
3090.25818,0.05108
3088.19800,0.05091
3086.13783,0.05053
3084.07766,0.05010
3082.01749,0.04998
3079.95731,0.05004
3077.89714,0.04987
3075.83697,0.04956
3073.77680,0.04922
3071.71663,0.04887
3069.65645,0.04863
3067.59628,0.04841
3065.53611,0.04815
3063.47594,0.04785
3061.41577,0.04742
3059.35559,0.04707
3057.29542,0.04700
3055.23525,0.04700
3053.17508,0.04687
3051.11491,0.04646
3049.05473,0.04595
3046.99456,0.04557
3044.93439,0.04529
3042.87422,0.04508
3040.81404,0.04490
3038.75387,0.04469
3036.69370,0.04439
3034.63353,0.04400
3032.57336,0.04365
3030.51318,0.04336
3028.45301,0.04299
3026.39284,0.04265
3024.33267,0.04256
3022.27250,0.04247
3020.21232,0.04208
3018.15215,0.04154
3016.09198,0.04111
3014.03181,0.04087
3011.97163,0.04066
3009.91146,0.04029
3007.85129,0.03985
3005.79112,0.03951
3003.73095,0.03934
3001.67077,0.03942
2999.61060,0.03959
2997.55043,0.03945
2995.49026,0.03895
2993.43009,0.03847
2991.36991,0.03828
2989.30974,0.03818
2987.24957,0.03805
2985.18940,0.03796
2983.12923,0.03777
2981.06905,0.03750
2979.00888,0.03731
2976.94871,0.03724
2974.88854,0.03720
2972.82836,0.03707
2970.76819,0.03688
2968.70802,0.03682
2966.64785,0.03687
2964.58768,0.03672
2962.52750,0.03646
2960.46733,0.03639
2958.40716,0.03636
2956.34699,0.03620
2954.28682,0.03591
2952.22664,0.03557
2950.16647,0.03541
2948.10630,0.03550
2946.04613,0.03559
2943.98596,0.03554
2941.92578,0.03544
2939.86561,0.03540
2937.80544,0.03554
2935.74527,0.03558
2933.68509,0.03545
2931.62492,0.03555
2929.56475,0.03568
2927.50458,0.03539
2925.44441,0.03486
2923.38423,0.03442
2921.32406,0.03415
2919.26389,0.03398
2917.20372,0.03380
2915.14355,0.03361
2913.08337,0.03348
2911.02320,0.03335
2908.96303,0.03310
2906.90286,0.03290
2904.84268,0.03278
2902.78251,0.03253
2900.72234,0.03234
2898.66217,0.03245
2896.60200,0.03254
2894.54182,0.03236
2892.48165,0.03211
2890.42148,0.03204
2888.36131,0.03204
2886.30114,0.03202
2884.24096,0.03200
2882.18079,0.03175
2880.12062,0.03124
2878.06045,0.03095
2876.00028,0.03103
2873.94010,0.03121
2871.87993,0.03126
2869.81976,0.03112
2867.75959,0.03087
2865.69941,0.03057
2863.63924,0.03029
2861.57907,0.03011
2859.51890,0.03006
2857.45873,0.03010
2855.39855,0.03009
2853.33838,0.03003
2851.27821,0.02983
2849.21804,0.02955
2847.15787,0.02933
2845.09769,0.02914
2843.03752,0.02894
2840.97735,0.02867
2838.91718,0.02836
2836.85700,0.02811
2834.79683,0.02798
2832.73666,0.02783
2830.67649,0.02760
2828.61632,0.02730
2826.55614,0.02713
2824.49597,0.02716
2822.43580,0.02720
2820.37563,0.02712
2818.31546,0.02696
2816.25528,0.02670
2814.19511,0.02647
2812.13494,0.02646
2810.07477,0.02638
2808.01460,0.02600
2805.95442,0.02573
2803.89425,0.02573
2801.83408,0.02568
2799.77391,0.02546
2797.71373,0.02524
2795.65356,0.02507
2793.59339,0.02499
2791.53322,0.02503
2789.47305,0.02510
2787.41287,0.02521
2785.35270,0.02525
2783.29253,0.02511
2781.23236,0.02484
2779.17219,0.02445
2777.11201,0.02414
2775.05184,0.02405
2772.99167,0.02397
2770.93150,0.02369
2768.87133,0.02336
2766.81115,0.02321
2764.75098,0.02331
2762.69081,0.02343
2760.63064,0.02349
2758.57046,0.02342
2756.51029,0.02316
2754.45012,0.02290
2752.38995,0.02283
2750.32978,0.02271
2748.26960,0.02238
2746.20943,0.02215
2744.14926,0.02215
2742.08909,0.02215
2740.02892,0.02205
2737.96874,0.02178
2735.90857,0.02141
2733.84840,0.02128
2731.78823,0.02139
2729.72805,0.02142
2727.66788,0.02131
2725.60771,0.02120
2723.54754,0.02115
2721.48737,0.02113
2719.42719,0.02096
2717.36702,0.02059
2715.30685,0.02027
2713.24668,0.02016
2711.18651,0.02008
2709.12633,0.01995
2707.06616,0.01979
2705.00599,0.01956
2702.94582,0.01940
2700.88565,0.01942
2698.82547,0.01935
2696.76530,0.01903
2694.70513,0.01884
2692.64496,0.01889
2690.58478,0.01887
2688.52461,0.01874
2686.46444,0.01853
2684.40427,0.01821
2682.34410,0.01788
2680.28392,0.01770
2678.22375,0.01765
2676.16358,0.01751
2674.10341,0.01731
2672.04324,0.01740
2669.98306,0.01759
2667.92289,0.01749
2665.86272,0.01720
2663.80255,0.01700
2661.74238,0.01686
2659.68220,0.01671
2657.62203,0.01654
2655.56186,0.01630
2653.50169,0.01617
2651.44151,0.01616
2649.38134,0.01595
2647.32117,0.01562
2645.26100,0.01545
2643.20083,0.01526
2641.14065,0.01498
2639.08048,0.01485
2637.02031,0.01489
2634.96014,0.01480
2632.89997,0.01454
2630.83979,0.01430
2628.77962,0.01422
2626.71945,0.01424
2624.65928,0.01413
2622.59910,0.01398
2620.53893,0.01389
2618.47876,0.01383
2616.41859,0.01375
2614.35842,0.01356
2612.29824,0.01340
2610.23807,0.01344
2608.17790,0.01339
2606.11773,0.01304
2604.05756,0.01275
2601.99738,0.01267
2599.93721,0.01275
2597.87704,0.01293
2595.81687,0.01302
2593.75670,0.01286
2591.69652,0.01256
2589.63635,0.01223
2587.57618,0.01194
2585.51601,0.01183
2583.45583,0.01197
2581.39566,0.01207
2579.33549,0.01203
2577.27532,0.01204
2575.21515,0.01202
2573.15497,0.01210
2571.09480,0.01224
2569.03463,0.01219
2566.97446,0.01207
2564.91429,0.01202
2562.85411,0.01206
2560.79394,0.01214
2558.73377,0.01220
2556.67360,0.01207
2554.61342,0.01186
2552.55325,0.01199
2550.49308,0.01233
2548.43291,0.01237
2546.37274,0.01229
2544.31256,0.01255
2542.25239,0.01289
2540.19222,0.01284
2538.13205,0.01240
2536.07188,0.01189
2534.01170,0.01172
2531.95153,0.01203
2529.89136,0.01252
2527.83119,0.01270
2525.77102,0.01247
2523.71084,0.01209
2521.65067,0.01178
2519.59050,0.01182
2517.53033,0.01226
2515.47015,0.01255
2513.40998,0.01247
2511.34981,0.01223
2509.28964,0.01210
2507.22947,0.01219
2505.16929,0.01241
2503.10912,0.01270
2501.04895,0.01297
2498.98878,0.01325
2496.92861,0.01342
2494.86843,0.01332
2492.80826,0.01309
2490.74809,0.01281
2488.68792,0.01258
2486.62775,0.01264
2484.56757,0.01290
2482.50740,0.01296
2480.44723,0.01304
2478.38706,0.01326
2476.32688,0.01301
2474.26671,0.01254
2472.20654,0.01260
2470.14637,0.01307
2468.08620,0.01340
2466.02602,0.01337
2463.96585,0.01333
2461.90568,0.01330
2459.84551,0.01301
2457.78534,0.01284
2455.72516,0.01309
2453.66499,0.01331
2451.60482,0.01326
2449.54465,0.01328
2447.48447,0.01330
2445.42430,0.01326
2443.36413,0.01334
2441.30396,0.01352
2439.24379,0.01363
2437.18361,0.01344
2435.12344,0.01328
2433.06327,0.01360
2431.00310,0.01407
2428.94293,0.01415
2426.88275,0.01386
2424.82258,0.01350
2422.76241,0.01327
2420.70224,0.01316
2418.64207,0.01319
2416.58189,0.01339
2414.52172,0.01361
2412.46155,0.01376
2410.40138,0.01392
2408.34120,0.01402
2406.28103,0.01389
2404.22086,0.01372
2402.16069,0.01373
2400.10052,0.01379
2398.04034,0.01370
2395.98017,0.01359
2393.92000,0.01356
2391.85983,0.01367
2389.79966,0.01397
2387.73948,0.01415
2385.67931,0.01407
2383.61914,0.01384
2381.55897,0.01362
2379.49880,0.01363
2377.43862,0.01391
2375.37845,0.01404
2373.31828,0.01391
2371.25811,0.01402
2369.19793,0.01431
2367.13776,0.01328
2365.07759,0.01092
2363.01742,0.01018
2360.95725,0.01160
2358.89707,0.01270
2356.83690,0.01308
2354.77673,0.01346
2352.71656,0.01359
2350.65639,0.01336
2348.59621,0.01313
2346.53604,0.01283
2344.47587,0.01211
2342.41570,0.01100
2340.35552,0.01036
2338.29535,0.01083
2336.23518,0.01187
2334.17501,0.01222
2332.11484,0.01192
2330.05466,0.01244
2327.99449,0.01369
2325.93432,0.01420
2323.87415,0.01372
2321.81398,0.01308
2319.75380,0.01303
2317.69363,0.01332
2315.63346,0.01350
2313.57329,0.01366
2311.51312,0.01370
2309.45294,0.01349
2307.39277,0.01326
2305.33260,0.01313
2303.27243,0.01304
2301.21225,0.01278
2299.15208,0.01245
2297.09191,0.01221
2295.03174,0.01198
2292.97157,0.01176
2290.91139,0.01167
2288.85122,0.01169
2286.79105,0.01166
2284.73088,0.01157
2282.67071,0.01155
2280.61053,0.01160
2278.55036,0.01135
2276.49019,0.01089
2274.43002,0.01063
2272.36984,0.01046
2270.30967,0.01017
2268.24950,0.00981
2266.18933,0.00960
2264.12916,0.00941
2262.06898,0.00917
2260.00881,0.00945
2257.94864,0.01003
2255.88847,0.01013
2253.82830,0.00976
2251.76812,0.00924
2249.70795,0.00890
2247.64778,0.00902
2245.58761,0.00911
2243.52744,0.00851
2241.46726,0.00730
2239.40709,0.00673
2237.34692,0.00749
2235.28675,0.00846
2233.22657,0.00888
2231.16640,0.00933
2229.10623,0.01003
2227.04606,0.00992
2224.98589,0.00899
2222.92571,0.00904
2220.86554,0.00981
2218.80537,0.00933
2216.74520,0.00802
2214.68503,0.00740
2212.62485,0.00741
2210.56468,0.00777
2208.50451,0.00801
2206.44434,0.00772
2204.38417,0.00789
2202.32399,0.00846
2200.26382,0.00779
2198.20365,0.00672
2196.14348,0.00706
2194.08330,0.00787
2192.02313,0.00826
2189.96296,0.00799
2187.90279,0.00668
2185.84262,0.00565
2183.78244,0.00567
2181.72227,0.00578
2179.66210,0.00574
2177.60193,0.00513
2175.54176,0.00412
2173.48158,0.00432
2171.42141,0.00588
2169.36124,0.00750
2167.30107,0.00747
2165.24089,0.00577
2163.18072,0.00372
2161.12055,0.00143
2159.06038,0.00000
2157.00021,0.00096
2154.94003,0.00323
2152.87986,0.00496
2150.81969,0.00557
2148.75952,0.00525
2146.69935,0.00458
2144.63917,0.00365
2142.57900,0.00286
2140.51883,0.00316
2138.45866,0.00370
2136.39849,0.00352
2134.33831,0.00378
2132.27814,0.00486
2130.21797,0.00536
2128.15780,0.00525
2126.09762,0.00543
2124.03745,0.00561
2121.97728,0.00546
2119.91711,0.00541
2117.85694,0.00569
2115.79676,0.00615
2113.73659,0.00616
2111.67642,0.00551
2109.61625,0.00544
2107.55608,0.00604
2105.49590,0.00635
2103.43573,0.00618
2101.37556,0.00544
2099.31539,0.00462
2097.25521,0.00451
2095.19504,0.00510
2093.13487,0.00533
2091.07470,0.00511
2089.01453,0.00491
2086.95435,0.00488
2084.89418,0.00557
2082.83401,0.00642
2080.77384,0.00631
2078.71367,0.00556
2076.65349,0.00533
2074.59332,0.00591
2072.53315,0.00614
2070.47298,0.00555
2068.41281,0.00485
2066.35263,0.00429
2064.29246,0.00387
2062.23229,0.00385
2060.17212,0.00403
2058.11194,0.00429
2056.05177,0.00448
2053.99160,0.00422
2051.93143,0.00398
2049.87126,0.00422
2047.81108,0.00447
2045.75091,0.00458
2043.69074,0.00480
2041.63057,0.00494
2039.57040,0.00481
2037.51022,0.00459
2035.45005,0.00429
2033.38988,0.00361
2031.32971,0.00258
2029.26954,0.00191
2027.20936,0.00212
2025.14919,0.00283
2023.08902,0.00327
2021.02885,0.00352
2018.96867,0.00403
2016.90850,0.00394
2014.84833,0.00287
2012.78816,0.00140
2010.72799,0.00027
2008.66781,0.00045
2006.60764,0.00142
2004.54747,0.00180
2002.48730,0.00197
2000.42713,0.00270
1998.36695,0.00283
1996.30678,0.00216
1994.24661,0.00199
1992.18644,0.00190
1990.12626,0.00163
1988.06609,0.00189
1986.00592,0.00234
1983.94575,0.00256
1981.88558,0.00227
1979.82540,0.00109
1977.76523,0.00000
1975.70506,0.00081
1973.64489,0.00259
1971.58472,0.00290
1969.52454,0.00236
1967.46437,0.00237
1965.40420,0.00269
1963.34403,0.00305
1961.28386,0.00319
1959.22368,0.00290
1957.16351,0.00268
1955.10334,0.00264
1953.04317,0.00212
1950.98299,0.00144
1948.92282,0.00124
1946.86265,0.00143
1944.80248,0.00175
1942.74231,0.00205
1940.68213,0.00226
1938.62196,0.00226
1936.56179,0.00195
1934.50162,0.00187
1932.44145,0.00271
1930.38127,0.00372
1928.32110,0.00380
1926.26093,0.00353
1924.20076,0.00351
1922.14059,0.00335
1920.08041,0.00332
1918.02024,0.00375
1915.96007,0.00360
1913.89990,0.00255
1911.83972,0.00165
1909.77955,0.00158
1907.71938,0.00199
1905.65921,0.00233
1903.59904,0.00257
1901.53886,0.00293
1899.47869,0.00335
1897.41852,0.00356
1895.35835,0.00348
1893.29818,0.00300
1891.23800,0.00219
1889.17783,0.00175
1887.11766,0.00222
1885.05749,0.00295
1882.99731,0.00316
1880.93714,0.00285
1878.87697,0.00255
1876.81680,0.00274
1874.75663,0.00331
1872.69645,0.00347
1870.63628,0.00305
1868.57611,0.00288
1866.51594,0.00329
1864.45577,0.00358
1862.39559,0.00360
1860.33542,0.00353
1858.27525,0.00334
1856.21508,0.00312
1854.15491,0.00316
1852.09473,0.00340
1850.03456,0.00347
1847.97439,0.00315
1845.91422,0.00261
1843.85404,0.00232
1841.79387,0.00251
1839.73370,0.00300
1837.67353,0.00350
1835.61336,0.00369
1833.55318,0.00357
1831.49301,0.00345
1829.43284,0.00337
1827.37267,0.00321
1825.31250,0.00312
1823.25232,0.00336
1821.19215,0.00376
1819.13198,0.00386
1817.07181,0.00363
1815.01163,0.00341
1812.95146,0.00338
1810.89129,0.00354
1808.83112,0.00373
1806.77095,0.00385
1804.71077,0.00392
1802.65060,0.00391
1800.59043,0.00379
1798.53026,0.00368
1796.47009,0.00362
1794.40991,0.00367
1792.34974,0.00394
1790.28957,0.00433
1788.22940,0.00450
1786.16923,0.00449
1784.10905,0.00453
1782.04888,0.00468
1779.98871,0.00474
1777.92854,0.00471
1775.86836,0.00472
1773.80819,0.00477
1771.74802,0.00489
1769.68785,0.00508
1767.62768,0.00522
1765.56750,0.00522
1763.50733,0.00510
1761.44716,0.00504
1759.38699,0.00521
1757.32682,0.00545
1755.26664,0.00564
1753.20647,0.00582
1751.14630,0.00593
1749.08613,0.00588
1747.02596,0.00577
1744.96578,0.00579
1742.90561,0.00589
1740.84544,0.00604
1738.78527,0.00626
1736.72509,0.00645
1734.66492,0.00671
1732.60475,0.00726
1730.54458,0.00769
1728.48441,0.00767
1726.42423,0.00758
1724.36406,0.00776
1722.30389,0.00805
1720.24372,0.00812
1718.18355,0.00812
1716.12337,0.00852
1714.06320,0.00919
1712.00303,0.00952
1709.94286,0.00951
1707.88268,0.00957
1705.82251,0.00991
1703.76234,0.01038
1701.70217,0.01083
1699.64200,0.01119
1697.58182,0.01155
1695.52165,0.01205
1693.46148,0.01254
1691.40131,0.01298
1689.34114,0.01349
1687.28096,0.01388
1685.22079,0.01417
1683.16062,0.01476
1681.10045,0.01550
1679.04028,0.01604
1676.98010,0.01638
1674.91993,0.01671
1672.85976,0.01714
1670.79959,0.01772
1668.73941,0.01846
1666.67924,0.01907
1664.61907,0.01941
1662.55890,0.01955
1660.49873,0.01965
1658.43855,0.01983
1656.37838,0.02000
1654.31821,0.01993
1652.25804,0.01968
1650.19787,0.01963
1648.13769,0.01980
1646.07752,0.02007
1644.01735,0.02016
1641.95718,0.01987
1639.89701,0.01944
1637.83683,0.01912
1635.77666,0.01895
1633.71649,0.01886
1631.65632,0.01872
1629.59614,0.01848
1627.53597,0.01812
1625.47580,0.01762
1623.41563,0.01713
1621.35546,0.01685
1619.29528,0.01669
1617.23511,0.01655
1615.17494,0.01648
1613.11477,0.01636
1611.05460,0.01607
1608.99442,0.01571
1606.93425,0.01539
1604.87408,0.01509
1602.81391,0.01476
1600.75373,0.01434
1598.69356,0.01382
1596.63339,0.01329
1594.57322,0.01285
1592.51305,0.01254
1590.45287,0.01219
1588.39270,0.01167
1586.33253,0.01105
1584.27236,0.01049
1582.21219,0.01003
1580.15201,0.00961
1578.09184,0.00918
1576.03167,0.00869
1573.97150,0.00829
1571.91133,0.00806
1569.85115,0.00795
1567.79098,0.00779
1565.73081,0.00740
1563.67064,0.00696
1561.61046,0.00679
1559.55029,0.00681
1557.49012,0.00665
1555.42995,0.00616
1553.36978,0.00566
1551.30960,0.00544
1549.24943,0.00536
1547.18926,0.00513
1545.12909,0.00480
1543.06892,0.00456
1541.00874,0.00452
1538.94857,0.00456
1536.88840,0.00445
1534.82823,0.00416
1532.76805,0.00378
1530.70788,0.00348
1528.64771,0.00337
1526.58754,0.00340
1524.52737,0.00346
1522.46719,0.00340
1520.40702,0.00308
1518.34685,0.00268
1516.28668,0.00256
1514.22651,0.00269
1512.16633,0.00273
1510.10616,0.00257
1508.04599,0.00219
1505.98582,0.00175
1503.92565,0.00156
1501.86547,0.00156
1499.80530,0.00161
1497.74513,0.00172
1495.68496,0.00196
1493.62478,0.00214
1491.56461,0.00208
1489.50444,0.00193
1487.44427,0.00191
1485.38410,0.00197
1483.32392,0.00200
1481.26375,0.00203
1479.20358,0.00215
1477.14341,0.00229
1475.08324,0.00240
1473.02306,0.00267
1470.96289,0.00297
1468.90272,0.00297
1466.84255,0.00285
1464.78238,0.00280
1462.72220,0.00272
1460.66203,0.00260
1458.60186,0.00263
1456.54169,0.00295
1454.48151,0.00321
1452.42134,0.00315
1450.36117,0.00301
1448.30100,0.00299
1446.24083,0.00296
1444.18065,0.00281
1442.12048,0.00265
1440.06031,0.00264
1438.00014,0.00268
1435.93997,0.00257
1433.87979,0.00234
1431.81962,0.00229
1429.75945,0.00255
1427.69928,0.00289
1425.63910,0.00309
1423.57893,0.00318
1421.51876,0.00319
1419.45859,0.00315
1417.39842,0.00320
1415.33824,0.00328
1413.27807,0.00322
1411.21790,0.00314
1409.15773,0.00313
1407.09756,0.00305
1405.03738,0.00285
1402.97721,0.00265
1400.91704,0.00250
1398.85687,0.00241
1396.79670,0.00245
1394.73652,0.00244
1392.67635,0.00235
1390.61618,0.00228
1388.55601,0.00220
1386.49583,0.00214
1384.43566,0.00223
1382.37549,0.00234
1380.31532,0.00242
1378.25515,0.00251
1376.19497,0.00261
1374.13480,0.00270
1372.07463,0.00275
1370.01446,0.00274
1367.95429,0.00278
1365.89411,0.00285
1363.83394,0.00271
1361.77377,0.00238
1359.71360,0.00209
1357.65343,0.00189
1355.59325,0.00182
1353.53308,0.00188
1351.47291,0.00186
1349.41274,0.00167
1347.35256,0.00146
1345.29239,0.00142
1343.23222,0.00160
1341.17205,0.00184
1339.11188,0.00185
1337.05170,0.00172
1334.99153,0.00163
1332.93136,0.00162
1330.87119,0.00167
1328.81102,0.00172
1326.75084,0.00173
1324.69067,0.00168
1322.63050,0.00163
1320.57033,0.00161
1318.51015,0.00162
1316.44998,0.00164
1314.38981,0.00168
1312.32964,0.00172
1310.26947,0.00176
1308.20929,0.00178
1306.14912,0.00179
1304.08895,0.00180
1302.02878,0.00185
1299.96861,0.00192
1297.90843,0.00208
1295.84826,0.00237
1293.78809,0.00255
1291.72792,0.00249
1289.66775,0.00248
1287.60757,0.00274
1285.54740,0.00298
1283.48723,0.00296
1281.42706,0.00291
1279.36688,0.00303
1277.30671,0.00317
1275.24654,0.00326
1273.18637,0.00334
1271.12620,0.00339
1269.06602,0.00336
1267.00585,0.00329
1264.94568,0.00327
1262.88551,0.00336
1260.82534,0.00343
1258.76516,0.00337
1256.70499,0.00336
1254.64482,0.00345
1252.58465,0.00336
1250.52447,0.00303
1248.46430,0.00277
1246.40413,0.00278
1244.34396,0.00288
1242.28379,0.00280
1240.22361,0.00253
1238.16344,0.00231
1236.10327,0.00220
1234.04310,0.00201
1231.98293,0.00172
1229.92275,0.00158
1227.86258,0.00162
1225.80241,0.00170
1223.74224,0.00152
1221.68207,0.00104
1219.62189,0.00067
1217.56172,0.00062
1215.50155,0.00081
1213.44138,0.00094
1211.38120,0.00064
1209.32103,0.00015
1207.26086,0.00000
1205.20069,0.00003
1203.14052,0.00007
1201.08034,0.00019
1199.02017,0.00036
1196.96000,0.00054
1194.89983,0.00075
1192.83966,0.00105
1190.77948,0.00147
1188.71931,0.00194
1186.65914,0.00243
1184.59897,0.00306
1182.53880,0.00386
1180.47862,0.00465
1178.41845,0.00541
1176.35828,0.00626
1174.29811,0.00721
1172.23793,0.00815
1170.17776,0.00905
1168.11759,0.00987
1166.05742,0.01073
1163.99725,0.01185
1161.93707,0.01302
1159.87690,0.01394
1157.81673,0.01474
1155.75656,0.01570
1153.69639,0.01675
1151.63621,0.01766
1149.57604,0.01853
1147.51587,0.01957
1145.45570,0.02073
1143.39552,0.02197
1141.33535,0.02332
1139.27518,0.02459
1137.21501,0.02568
1135.15484,0.02703
1133.09466,0.02865
1131.03449,0.03008
1128.97432,0.03137
1126.91415,0.03273
1124.85398,0.03408
1122.79380,0.03544
1120.73363,0.03686
1118.67346,0.03854
1116.61329,0.04036
1114.55312,0.04189
1112.49294,0.04326
1110.43277,0.04482
1108.37260,0.04653
1106.31243,0.04800
1104.25225,0.04927
1102.19208,0.05073
1100.13191,0.05231
1098.07174,0.05375
1096.01157,0.05507
1093.95139,0.05629
1091.89122,0.05740
1089.83105,0.05853
1087.77088,0.05964
1085.71071,0.06058
1083.65053,0.06156
1081.59036,0.06276
1079.53019,0.06399
1077.47002,0.06498
1075.40985,0.06564
1073.34967,0.06609
1071.28950,0.06644
1069.22933,0.06670
1067.16916,0.06692
1065.10898,0.06699
1063.04881,0.06678
1060.98864,0.06630
1058.92847,0.06563
1056.86830,0.06495
1054.80812,0.06415
1052.74795,0.06314
1050.68778,0.06211
1048.62761,0.06089
1046.56744,0.05935
1044.50726,0.05765
1042.44709,0.05584
1040.38692,0.05401
1038.32675,0.05231
1036.26657,0.05061
1034.20640,0.04885
1032.14623,0.04724
1030.08606,0.04574
1028.02589,0.04434
1025.96571,0.04319
1023.90554,0.04213
1021.84537,0.04109
1019.78520,0.04007
1017.72503,0.03890
1015.66485,0.03762
1013.60468,0.03665
1011.54451,0.03627
1009.48434,0.03607
1007.42417,0.03587
1005.36399,0.03588
1003.30382,0.03611
1001.24365,0.03647
999.18348,0.03712
997.12330,0.03820
995.06313,0.03950
993.00296,0.04074
990.94279,0.04180
988.88262,0.04250
986.82244,0.04301
984.76227,0.04361
982.70210,0.04399
980.64193,0.04382
978.58176,0.04322
976.52158,0.04229
974.46141,0.04100
972.40124,0.03942
970.34107,0.03774
968.28089,0.03598
966.22072,0.03410
964.16055,0.03207
962.10038,0.03005
960.04021,0.02841
957.98003,0.02714
955.91986,0.02585
953.85969,0.02462
951.79952,0.02392
949.73935,0.02365
947.67917,0.02318
945.61900,0.02265
943.55883,0.02231
941.49866,0.02185
939.43849,0.02118
937.37831,0.02071
935.31814,0.02077
933.25797,0.02104
931.19780,0.02097
929.13762,0.02062
927.07745,0.02039
925.01728,0.02012
922.95711,0.01951
920.89694,0.01873
918.83676,0.01811
916.77659,0.01761
914.71642,0.01715
912.65625,0.01671
910.59608,0.01612
908.53590,0.01545
906.47573,0.01509
904.41556,0.01521
902.35539,0.01556
900.29522,0.01581
898.23504,0.01587
896.17487,0.01581
894.11470,0.01588
892.05453,0.01599
889.99435,0.01589
887.93418,0.01576
885.87401,0.01596
883.81384,0.01661
881.75367,0.01735
879.69349,0.01788
877.63332,0.01840
875.57315,0.01896
873.51298,0.01938
871.45281,0.01977
869.39263,0.02025
867.33246,0.02075
865.27229,0.02137
863.21212,0.02163
861.15194,0.02118
859.09177,0.02060
857.03160,0.02015
854.97143,0.01982
852.91126,0.01945
850.85108,0.01881
848.79091,0.01823
846.73074,0.01796
844.67057,0.01766
842.61040,0.01701
840.55022,0.01620
838.49005,0.01539
836.42988,0.01459
834.36971,0.01398
832.30954,0.01353
830.24936,0.01269
828.18919,0.01163
826.12902,0.01079
824.06885,0.01000
822.00867,0.00922
819.94850,0.00866
817.88833,0.00847
815.82816,0.00849
813.76799,0.00832
811.70781,0.00775
809.64764,0.00718
807.58747,0.00701
805.52730,0.00697
803.46713,0.00630
801.40695,0.00513
799.34678,0.00447
797.28661,0.00438
795.22644,0.00424
793.16627,0.00419
791.10609,0.00444
789.04592,0.00450
786.98575,0.00441
784.92558,0.00453
782.86540,0.00453
780.80523,0.00435
778.74506,0.00430
776.68489,0.00411
774.62472,0.00367
772.56454,0.00322
770.50437,0.00273
768.44420,0.00259
766.38403,0.00294
764.32386,0.00314
762.26368,0.00266
760.20351,0.00180
758.14334,0.00111
756.08317,0.00088
754.02299,0.00110
751.96282,0.00133
749.90265,0.00151
747.84248,0.00165
745.78231,0.00154
743.72213,0.00111
741.66196,0.00058
739.60179,0.00053
737.54162,0.00139
735.48145,0.00273
733.42127,0.00351
731.36110,0.00296
729.30093,0.00160
727.24076,0.00082
725.18059,0.00081
723.12041,0.00069
721.06024,0.00036
719.00007,0.00043
716.93990,0.00143
714.87972,0.00268
712.81955,0.00326
710.75938,0.00322
708.69921,0.00298
706.63904,0.00270
704.57886,0.00238
702.51869,0.00188
700.45852,0.00126
698.39835,0.00084
696.33818,0.00080
694.27800,0.00078
692.21783,0.00040
690.15766,0.00000
688.09749,0.00028
686.03731,0.00107
683.97714,0.00157
681.91697,0.00158
679.85680,0.00130
677.79663,0.00108
675.73645,0.00116
673.67628,0.00137
671.61611,0.00153
669.55594,0.00159
667.49577,0.00146
665.43559,0.00126
663.37542,0.00125
661.31525,0.00139
659.25508,0.00171
657.19491,0.00226
655.13473,0.00310
653.07456,0.00339
651.01439,0.00245
648.95422,0.00182
646.89404,0.00237
644.83387,0.00243
642.77370,0.00113
640.71353,0.00000
638.65336,0.00009
636.59318,0.00106
634.53301,0.00172
632.47284,0.00154
630.41267,0.00105
628.35250,0.00021
626.29232,-0.00088
624.23215,-0.00084
622.17198,-0.00083
620.11181,-0.00151
618.05164,-0.00181
615.99146,-0.00158
613.93129,-0.00077
611.87112,-0.00062
609.81095,-0.00115
607.75077,0.00034
605.69060,0.00264
603.63043,0.00292
601.57026,0.00183
599.51009,0.00000
