3996.73391,-0.00011
3994.67373,0.00002
3992.61356,0.00016
3990.55339,0.00011
3988.49322,-0.00002
3986.43305,0.00007
3984.37287,0.00015
3982.31270,0.00005
3980.25253,0.00000
3978.19236,0.00027
3976.13219,0.00070
3974.07201,0.00092
3972.01184,0.00086
3969.95167,0.00072
3967.89150,0.00059
3965.83133,0.00048
3963.77115,0.00045
3961.71098,0.00039
3959.65081,0.00033
3957.59064,0.00048
3955.53046,0.00060
3953.47029,0.00064
3951.41012,0.00085
3949.34995,0.00093
3947.28978,0.00053
3945.22960,0.00036
3943.16943,0.00054
3941.10926,0.00039
3939.04909,0.00036
3936.98892,0.00069
3934.92874,0.00119
3932.86857,0.00156
3930.80840,0.00127
3928.74823,0.00093
3926.68805,0.00131
3924.62788,0.00160
3922.56771,0.00117
3920.50754,0.00096
3918.44737,0.00090
3916.38719,0.00043
3914.32702,0.00010
3912.26685,0.00039
3910.20668,0.00063
3908.14651,0.00099
3906.08633,0.00193
3904.02616,0.00209
3901.96599,0.00105
3899.90582,0.00047
3897.84565,0.00020
3895.78547,0.00040
3893.72530,0.00127
3891.66513,0.00116
3889.60496,0.00010
3887.54478,0.00089
3885.48461,0.00203
3883.42444,0.00173
3881.36427,0.00204
3879.30410,0.00169
3877.24392,0.00124
3875.18375,0.00207
3873.12358,0.00238
3871.06341,0.00233
3869.00324,0.00147
3866.94306,0.00117
3864.88289,0.00235
3862.82272,0.00209
3860.76255,0.00126
3858.70237,0.00164
3856.64220,0.00325
3854.58203,0.00453
3852.52186,0.00243
3850.46169,0.00000
3848.40151,0.00048
3846.34134,0.00192
3844.28117,0.00250
3842.22100,0.00221
3840.16083,0.00247
3838.10065,0.00259
3836.04048,0.00155
3833.98031,0.00116
3831.92014,0.00147
3829.85997,0.00135
3827.79979,0.00138
3825.73962,0.00134
3823.67945,0.00213
3821.61928,0.00338
3819.55910,0.00253
3817.49893,0.00253
3815.43876,0.00246
3813.37859,0.00096
3811.31842,0.00104
3809.25824,0.00270
3807.19807,0.00361
3805.13790,0.00287
3803.07773,0.00309
3801.01756,0.00265
3798.95738,0.00097
3796.89721,0.00107
3794.83704,0.00137
3792.77687,0.00150
3790.71670,0.00190
3788.65652,0.00203
3786.59635,0.00200
3784.53618,0.00167
3782.47601,0.00134
3780.41583,0.00169
3778.35566,0.00164
3776.29549,0.00138
3774.23532,0.00200
3772.17515,0.00305
3770.11497,0.00317
3768.05480,0.00199
3765.99463,0.00134
3763.93446,0.00128
3761.87429,0.00211
3759.81411,0.00294
3757.75394,0.00212
3755.69377,0.00150
3753.63360,0.00265
3751.57342,0.00341
3749.51325,0.00172
3747.45308,0.00115
3745.39291,0.00324
3743.33274,0.00291
3741.27256,0.00084
3739.21239,0.00085
3737.15222,0.00223
3735.09205,0.00260
3733.03188,0.00140
3730.97170,0.00036
3728.91153,0.00072
3726.85136,0.00195
3724.79119,0.00211
3722.73102,0.00159
3720.67084,0.00127
3718.61067,0.00119
3716.55050,0.00142
3714.49033,0.00247
3712.43015,0.00355
3710.36998,0.00274
3708.30981,0.00118
3706.24964,0.00094
3704.18947,0.00198
3702.12929,0.00255
3700.06912,0.00167
3698.00895,0.00106
3695.94878,0.00121
3693.88861,0.00169
3691.82843,0.00284
3689.76826,0.00341
3687.70809,0.00212
3685.64792,0.00081
3683.58775,0.00102
3681.52757,0.00200
3679.46740,0.00306
3677.40723,0.00424
3675.34706,0.00386
3673.28688,0.00186
3671.22671,0.00258
3669.16654,0.00299
3667.10637,0.00167
3665.04620,0.00183
3662.98602,0.00285
3660.92585,0.00367
3658.86568,0.00465
3656.80551,0.00495
3654.74534,0.00376
3652.68516,0.00438
3650.62499,0.00702
3648.56482,0.00710
3646.50465,0.00496
3644.44447,0.00432
3642.38430,0.00559
3640.32413,0.00676
3638.26396,0.00697
3636.20379,0.00680
3634.14361,0.00679
3632.08344,0.00728
3630.02327,0.00855
3627.96310,0.00822
3625.90293,0.00702
3623.84275,0.00764
3621.78258,0.00936
3619.72241,0.01053
3617.66224,0.01004
3615.60207,0.00980
3613.54189,0.01075
3611.48172,0.01150
3609.42155,0.01224
3607.36138,0.01250
3605.30120,0.01224
3603.24103,0.01267
3601.18086,0.01323
3599.12069,0.01321
3597.06052,0.01352
3595.00034,0.01418
3592.94017,0.01422
3590.88000,0.01459
3588.81983,0.01604
3586.75966,0.01635
3584.69948,0.01525
3582.63931,0.01517
3580.57914,0.01591
3578.51897,0.01651
3576.45879,0.01702
3574.39862,0.01740
3572.33845,0.01763
3570.27828,0.01847
3568.21811,0.01974
3566.15793,0.01964
3564.09776,0.01865
3562.03759,0.01869
3559.97742,0.01940
3557.91725,0.02007
3555.85707,0.02079
3553.79690,0.02158
3551.73673,0.02191
3549.67656,0.02200
3547.61639,0.02242
3545.55621,0.02254
3543.49604,0.02234
3541.43587,0.02271
3539.37570,0.02357
3537.31552,0.02442
3535.25535,0.02495
3533.19518,0.02524
3531.13501,0.02555
3529.07484,0.02581
3527.01466,0.02577
3524.95449,0.02560
3522.89432,0.02549
3520.83415,0.02558
3518.77398,0.02606
3516.71380,0.02669
3514.65363,0.02746
3512.59346,0.02834
3510.53329,0.02896
3508.47312,0.02899
3506.41294,0.02897
3504.35277,0.02943
3502.29260,0.02970
3500.23243,0.02968
3498.17225,0.02993
3496.11208,0.03043
3494.05191,0.03100
3491.99174,0.03152
3489.93157,0.03177
3487.87139,0.03179
3485.81122,0.03191
3483.75105,0.03260
3481.69088,0.03317
3479.63071,0.03287
3477.57053,0.03261
3475.51036,0.03293
3473.45019,0.03351
3471.39002,0.03405
3469.32984,0.03430
3467.26967,0.03438
3465.20950,0.03465
3463.14933,0.03509
3461.08916,0.03538
3459.02898,0.03551
3456.96881,0.03553
3454.90864,0.03562
3452.84847,0.03603
3450.78830,0.03660
3448.72812,0.03693
3446.66795,0.03653
3444.60778,0.03610
3442.54761,0.03644
3440.48744,0.03686
3438.42726,0.03724
3436.36709,0.03769
3434.30692,0.03806
3432.24675,0.03843
3430.18657,0.03867
3428.12640,0.03865
3426.06623,0.03856
3424.00606,0.03877
3421.94589,0.03933
3419.88571,0.03963
3417.82554,0.03947
3415.76537,0.03960
3413.70520,0.04031
3411.64503,0.04086
3409.58485,0.04076
3407.52468,0.04060
3405.46451,0.04084
3403.40434,0.04113
3401.34416,0.04097
3399.28399,0.04081
3397.22382,0.04106
3395.16365,0.04144
3393.10348,0.04166
3391.04330,0.04161
3388.98313,0.04188
3386.92296,0.04237
3384.86279,0.04241
3382.80262,0.04236
3380.74244,0.04264
3378.68227,0.04281
3376.62210,0.04262
3374.56193,0.04236
3372.50176,0.04231
3370.44158,0.04261
3368.38141,0.04308
3366.32124,0.04331
3364.26107,0.04334
3362.20089,0.04334
3360.14072,0.04321
3358.08055,0.04310
3356.02038,0.04317
3353.96021,0.04329
3351.90003,0.04322
3349.83986,0.04309
3347.77969,0.04316
3345.71952,0.04328
3343.65935,0.04338
3341.59917,0.04352
3339.53900,0.04377
3337.47883,0.04396
3335.41866,0.04379
3333.35849,0.04350
3331.29831,0.04355
3329.23814,0.04373
3327.17797,0.04367
3325.11780,0.04365
3323.05762,0.04384
3320.99745,0.04403
3318.93728,0.04412
3316.87711,0.04405
3314.81694,0.04397
3312.75676,0.04397
3310.69659,0.04405
3308.63642,0.04428
3306.57625,0.04440
3304.51608,0.04420
3302.45590,0.04397
3300.39573,0.04394
3298.33556,0.04398
3296.27539,0.04407
3294.21521,0.04414
3292.15504,0.04420
3290.09487,0.04444
3288.03470,0.04464
3285.97453,0.04443
3283.91435,0.04418
3281.85418,0.04415
3279.79401,0.04411
3277.73384,0.04418
3275.67367,0.04448
3273.61349,0.04472
3271.55332,0.04475
3269.49315,0.04481
3267.43298,0.04485
3265.37281,0.04470
3263.31263,0.04468
3261.25246,0.04476
3259.19229,0.04456
3257.13212,0.04425
3255.07194,0.04407
3253.01177,0.04385
3250.95160,0.04380
3248.89143,0.04411
3246.83126,0.04425
3244.77108,0.04404
3242.71091,0.04395
3240.65074,0.04418
3238.59057,0.04436
3236.53040,0.04426
3234.47022,0.04411
3232.41005,0.04421
3230.34988,0.04428
3228.28971,0.04398
3226.22954,0.04345
3224.16936,0.04323
3222.10919,0.04363
3220.04902,0.04425
3217.98885,0.04443
3215.92867,0.04421
3213.86850,0.04397
3211.80833,0.04391
3209.74816,0.04385
3207.68799,0.04351
3205.62781,0.04327
3203.56764,0.04333
3201.50747,0.04344
3199.44730,0.04358
3197.38713,0.04359
3195.32695,0.04337
3193.26678,0.04314
3191.20661,0.04286
3189.14644,0.04259
3187.08626,0.04249
3185.02609,0.04238
3182.96592,0.04215
3180.90575,0.04208
3178.84558,0.04233
3176.78540,0.04250
3174.72523,0.04223
3172.66506,0.04173
3170.60489,0.04132
3168.54472,0.04111
3166.48454,0.04105
3164.42437,0.04104
3162.36420,0.04090
3160.30403,0.04075
3158.24386,0.04083
3156.18368,0.04090
3154.12351,0.04077
3152.06334,0.04063
3150.00317,0.04038
3147.94299,0.03997
3145.88282,0.03976
3143.82265,0.03986
3141.76248,0.04002
3139.70231,0.03999
3137.64213,0.03970
3135.58196,0.03930
3133.52179,0.03902
3131.46162,0.03890
3129.40145,0.03875
3127.34127,0.03833
3125.28110,0.03782
3123.22093,0.03771
3121.16076,0.03795
3119.10058,0.03794
3117.04041,0.03760
3114.98024,0.03722
3112.92007,0.03687
3110.85990,0.03679
3108.79972,0.03692
3106.73955,0.03688
3104.67938,0.03663
3102.61921,0.03634
3100.55904,0.03605
3098.49886,0.03581
3096.43869,0.03563
3094.37852,0.03539
3092.31835,0.03515
3090.25818,0.03504
3088.19800,0.03499
3086.13783,0.03485
3084.07766,0.03462
3082.01749,0.03443
3079.95731,0.03422
3077.89714,0.03397
3075.83697,0.03372
3073.77680,0.03349
3071.71663,0.03340
3069.65645,0.03327
3067.59628,0.03292
3065.53611,0.03256
3063.47594,0.03238
3061.41577,0.03233
3059.35559,0.03220
3057.29542,0.03192
3055.23525,0.03172
3053.17508,0.03185
3051.11491,0.03203
3049.05473,0.03167
3046.99456,0.03097
3044.93439,0.03053
3042.87422,0.03036
3040.81404,0.03026
3038.75387,0.03020
3036.69370,0.03015
3034.63353,0.03010
3032.57336,0.02996
3030.51318,0.02960
3028.45301,0.02924
3026.39284,0.02902
3024.33267,0.02884
3022.27250,0.02864
3020.21232,0.02828
3018.15215,0.02791
3016.09198,0.02785
3014.03181,0.02794
3011.97163,0.02783
3009.91146,0.02758
3007.85129,0.02746
3005.79112,0.02732
3003.73095,0.02700
3001.67077,0.02667
2999.61060,0.02648
2997.55043,0.02637
2995.49026,0.02613
2993.43009,0.02585
2991.36991,0.02584
2989.30974,0.02582
2987.24957,0.02557
2985.18940,0.02537
2983.12923,0.02530
2981.06905,0.02513
2979.00888,0.02505
2976.94871,0.02511
2974.88854,0.02499
2972.82836,0.02484
2970.76819,0.02481
2968.70802,0.02479
2966.64785,0.02470
2964.58768,0.02452
2962.52750,0.02430
2960.46733,0.02420
2958.40716,0.02426
2956.34699,0.02431
2954.28682,0.02421
2952.22664,0.02417
2950.16647,0.02423
2948.10630,0.02404
2946.04613,0.02373
2943.98596,0.02366
2941.92578,0.02359
2939.86561,0.02347
2937.80544,0.02343
2935.74527,0.02335
2933.68509,0.02328
2931.62492,0.02333
2929.56475,0.02330
2927.50458,0.02308
2925.44441,0.02270
2923.38423,0.02230
2921.32406,0.02214
2919.26389,0.02225
2917.20372,0.02239
2915.14355,0.02225
2913.08337,0.02184
2911.02320,0.02158
2908.96303,0.02159
2906.90286,0.02156
2904.84268,0.02142
2902.78251,0.02124
2900.72234,0.02101
2898.66217,0.02076
2896.60200,0.02066
2894.54182,0.02061
2892.48165,0.02047
2890.42148,0.02035
2888.36131,0.02019
2886.30114,0.01991
2884.24096,0.01977
2882.18079,0.01983
2880.12062,0.01991
2878.06045,0.01997
2876.00028,0.01995
2873.94010,0.01987
2871.87993,0.01974
2869.81976,0.01957
2867.75959,0.01946
2865.69941,0.01937
2863.63924,0.01926
2861.57907,0.01906
2859.51890,0.01881
2857.45873,0.01881
2855.39855,0.01899
2853.33838,0.01889
2851.27821,0.01858
2849.21804,0.01841
2847.15787,0.01844
2845.09769,0.01854
2843.03752,0.01842
2840.97735,0.01801
2838.91718,0.01774
2836.85700,0.01774
2834.79683,0.01761
2832.73666,0.01733
2830.67649,0.01716
2828.61632,0.01711
2826.55614,0.01707
2824.49597,0.01693
2822.43580,0.01678
2820.37563,0.01678
2818.31546,0.01677
2816.25528,0.01645
2814.19511,0.01596
2812.13494,0.01579
2810.07477,0.01597
2808.01460,0.01619
2805.95442,0.01625
2803.89425,0.01606
2801.83408,0.01565
2799.77391,0.01540
2797.71373,0.01535
2795.65356,0.01545
2793.59339,0.01559
2791.53322,0.01562
2789.47305,0.01562
2787.41287,0.01555
2785.35270,0.01525
2783.29253,0.01484
2781.23236,0.01461
2779.17219,0.01462
2777.11201,0.01468
2775.05184,0.01456
2772.99167,0.01430
2770.93150,0.01427
2768.87133,0.01447
2766.81115,0.01454
2764.75098,0.01437
2762.69081,0.01407
2760.63064,0.01378
2758.57046,0.01364
2756.51029,0.01352
2754.45012,0.01347
2752.38995,0.01354
2750.32978,0.01361
2748.26960,0.01362
2746.20943,0.01351
2744.14926,0.01323
2742.08909,0.01298
2740.02892,0.01296
2737.96874,0.01302
2735.90857,0.01293
2733.84840,0.01266
2731.78823,0.01240
2729.72805,0.01244
2727.66788,0.01252
2725.60771,0.01230
2723.54754,0.01194
2721.48737,0.01184
2719.42719,0.01201
2717.36702,0.01204
2715.30685,0.01182
2713.24668,0.01177
2711.18651,0.01191
2709.12633,0.01190
2707.06616,0.01169
2705.00599,0.01151
2702.94582,0.01148
2700.88565,0.01153
2698.82547,0.01140
2696.76530,0.01111
2694.70513,0.01089
2692.64496,0.01075
2690.58478,0.01066
2688.52461,0.01062
2686.46444,0.01065
2684.40427,0.01061
2682.34410,0.01041
2680.28392,0.01028
2678.22375,0.01028
2676.16358,0.01027
2674.10341,0.01015
2672.04324,0.00990
2669.98306,0.00973
2667.92289,0.00976
2665.86272,0.00979
2663.80255,0.00977
2661.74238,0.00966
2659.68220,0.00947
2657.62203,0.00936
2655.56186,0.00942
2653.50169,0.00954
2651.44151,0.00956
2649.38134,0.00941
2647.32117,0.00918
2645.26100,0.00902
2643.20083,0.00894
2641.14065,0.00900
2639.08048,0.00916
2637.02031,0.00907
2634.96014,0.00873
2632.89997,0.00857
2630.83979,0.00861
2628.77962,0.00860
2626.71945,0.00838
2624.65928,0.00818
2622.59910,0.00814
2620.53893,0.00809
2618.47876,0.00800
2616.41859,0.00777
2614.35842,0.00751
2612.29824,0.00753
2610.23807,0.00756
2608.17790,0.00734
2606.11773,0.00733
2604.05756,0.00761
2601.99738,0.00765
2599.93721,0.00748
2597.87704,0.00732
2595.81687,0.00728
2593.75670,0.00749
2591.69652,0.00770
2589.63635,0.00765
2587.57618,0.00746
2585.51601,0.00707
2583.45583,0.00652
2581.39566,0.00642
2579.33549,0.00670
2577.27532,0.00672
2575.21515,0.00672
2573.15497,0.00689
2571.09480,0.00698
2569.03463,0.00702
2566.97446,0.00698
2564.91429,0.00685
2562.85411,0.00688
2560.79394,0.00695
2558.73377,0.00689
2556.67360,0.00687
2554.61342,0.00680
2552.55325,0.00681
2550.49308,0.00711
2548.43291,0.00712
2546.37274,0.00681
2544.31256,0.00684
2542.25239,0.00705
2540.19222,0.00700
2538.13205,0.00706
2536.07188,0.00726
2534.01170,0.00707
2531.95153,0.00665
2529.89136,0.00655
2527.83119,0.00654
2525.77102,0.00652
2523.71084,0.00677
2521.65067,0.00702
2519.59050,0.00699
2517.53033,0.00690
2515.47015,0.00682
2513.40998,0.00655
2511.34981,0.00640
2509.28964,0.00678
2507.22947,0.00723
2505.16929,0.00711
2503.10912,0.00660
2501.04895,0.00641
2498.98878,0.00672
2496.92861,0.00710
2494.86843,0.00724
2492.80826,0.00723
2490.74809,0.00718
2488.68792,0.00701
2486.62775,0.00692
2484.56757,0.00709
2482.50740,0.00735
2480.44723,0.00757
2478.38706,0.00756
2476.32688,0.00733
2474.26671,0.00716
2472.20654,0.00719
2470.14637,0.00745
2468.08620,0.00783
2466.02602,0.00789
2463.96585,0.00770
2461.90568,0.00763
2459.84551,0.00760
2457.78534,0.00780
2455.72516,0.00815
2453.66499,0.00821
2451.60482,0.00804
2449.54465,0.00796
2447.48447,0.00812
2445.42430,0.00831
2443.36413,0.00823
2441.30396,0.00809
2439.24379,0.00801
2437.18361,0.00798
2435.12344,0.00822
2433.06327,0.00865
2431.00310,0.00873
2428.94293,0.00839
2426.88275,0.00826
2424.82258,0.00841
2422.76241,0.00834
2420.70224,0.00800
2418.64207,0.00760
2416.58189,0.00741
2414.52172,0.00759
2412.46155,0.00772
2410.40138,0.00752
2408.34120,0.00732
2406.28103,0.00733
2404.22086,0.00740
2402.16069,0.00744
2400.10052,0.00731
2398.04034,0.00704
2395.98017,0.00706
2393.92000,0.00718
2391.85983,0.00708
2389.79966,0.00707
2387.73948,0.00732
2385.67931,0.00766
2383.61914,0.00782
2381.55897,0.00777
2379.49880,0.00779
2377.43862,0.00807
2375.37845,0.00834
2373.31828,0.00833
2371.25811,0.00791
2369.19793,0.00763
2367.13776,0.00826
2365.07759,0.00989
2363.01742,0.01166
2360.95725,0.01255
2358.89707,0.01098
2356.83690,0.00939
2354.77673,0.00863
2352.71656,0.00748
2350.65639,0.00733
2348.59621,0.00812
2346.53604,0.00783
2344.47587,0.00831
2342.41570,0.00856
2340.35552,0.00850
2338.29535,0.00856
2336.23518,0.00902
2334.17501,0.00987
2332.11484,0.00990
2330.05466,0.00925
2327.99449,0.00852
2325.93432,0.00829
2323.87415,0.00839
2321.81398,0.00896
2319.75380,0.00898
2317.69363,0.00908
2315.63346,0.00933
2313.57329,0.00915
2311.51312,0.00857
2309.45294,0.00795
2307.39277,0.00747
2305.33260,0.00716
2303.27243,0.00696
2301.21225,0.00682
2299.15208,0.00697
2297.09191,0.00737
2295.03174,0.00767
2292.97157,0.00774
2290.91139,0.00799
2288.85122,0.00851
2286.79105,0.00873
2284.73088,0.00863
2282.67071,0.00854
2280.61053,0.00815
2278.55036,0.00737
2276.49019,0.00686
2274.43002,0.00704
2272.36984,0.00758
2270.30967,0.00781
2268.24950,0.00729
2266.18933,0.00657
2264.12916,0.00638
2262.06898,0.00658
2260.00881,0.00679
2257.94864,0.00697
2255.88847,0.00689
2253.82830,0.00627
2251.76812,0.00571
2249.70795,0.00564
2247.64778,0.00556
2245.58761,0.00515
2243.52744,0.00526
2241.46726,0.00608
2239.40709,0.00647
2237.34692,0.00645
2235.28675,0.00664
2233.22657,0.00638
2231.16640,0.00593
2229.10623,0.00617
2227.04606,0.00651
2224.98589,0.00619
2222.92571,0.00548
2220.86554,0.00502
2218.80537,0.00499
2216.74520,0.00550
2214.68503,0.00645
2212.62485,0.00689
2210.56468,0.00640
2208.50451,0.00581
2206.44434,0.00562
2204.38417,0.00567
2202.32399,0.00586
2200.26382,0.00542
2198.20365,0.00458
2196.14348,0.00483
2194.08330,0.00516
2192.02313,0.00417
2189.96296,0.00400
2187.90279,0.00555
2185.84262,0.00613
2183.78244,0.00521
2181.72227,0.00438
2179.66210,0.00375
2177.60193,0.00312
2175.54176,0.00312
2173.48158,0.00376
2171.42141,0.00403
2169.36124,0.00418
2167.30107,0.00452
2165.24089,0.00476
2163.18072,0.00561
2161.12055,0.00605
2159.06038,0.00467
2157.00021,0.00329
2154.94003,0.00331
2152.87986,0.00343
2150.81969,0.00337
2148.75952,0.00375
2146.69935,0.00332
2144.63917,0.00207
2142.57900,0.00212
2140.51883,0.00331
2138.45866,0.00374
2136.39849,0.00348
2134.33831,0.00340
2132.27814,0.00283
2130.21797,0.00160
2128.15780,0.00099
2126.09762,0.00156
2124.03745,0.00248
2121.97728,0.00302
2119.91711,0.00294
2117.85694,0.00260
2115.79676,0.00281
2113.73659,0.00358
2111.67642,0.00418
2109.61625,0.00440
2107.55608,0.00426
2105.49590,0.00404
2103.43573,0.00393
2101.37556,0.00344
2099.31539,0.00303
2097.25521,0.00335
2095.19504,0.00332
2093.13487,0.00265
2091.07470,0.00278
2089.01453,0.00395
2086.95435,0.00458
2084.89418,0.00411
2082.83401,0.00330
2080.77384,0.00271
2078.71367,0.00230
2076.65349,0.00182
2074.59332,0.00174
2072.53315,0.00252
2070.47298,0.00314
2068.41281,0.00295
2066.35263,0.00279
2064.29246,0.00291
2062.23229,0.00312
2060.17212,0.00353
2058.11194,0.00370
2056.05177,0.00377
2053.99160,0.00425
2051.93143,0.00436
2049.87126,0.00371
2047.81108,0.00327
2045.75091,0.00307
2043.69074,0.00298
2041.63057,0.00340
2039.57040,0.00435
2037.51022,0.00538
2035.45005,0.00486
2033.38988,0.00330
2031.32971,0.00311
2029.26954,0.00314
2027.20936,0.00213
2025.14919,0.00204
2023.08902,0.00278
2021.02885,0.00276
2018.96867,0.00252
2016.90850,0.00279
2014.84833,0.00336
2012.78816,0.00405
2010.72799,0.00446
2008.66781,0.00398
2006.60764,0.00289
2004.54747,0.00262
2002.48730,0.00326
2000.42713,0.00381
1998.36695,0.00371
1996.30678,0.00278
1994.24661,0.00232
1992.18644,0.00328
1990.12626,0.00421
1988.06609,0.00406
1986.00592,0.00310
1983.94575,0.00261
1981.88558,0.00310
1979.82540,0.00359
1977.76523,0.00304
1975.70506,0.00188
1973.64489,0.00169
1971.58472,0.00200
1969.52454,0.00203
1967.46437,0.00287
1965.40420,0.00383
1963.34403,0.00309
1961.28386,0.00132
1959.22368,0.00074
1957.16351,0.00196
1955.10334,0.00347
1953.04317,0.00332
1950.98299,0.00137
1948.92282,0.00000
1946.86265,0.00040
1944.80248,0.00111
1942.74231,0.00099
1940.68213,0.00019
1938.62196,0.00019
1936.56179,0.00126
1934.50162,0.00210
1932.44145,0.00175
1930.38127,0.00094
1928.32110,0.00093
1926.26093,0.00150
1924.20076,0.00214
1922.14059,0.00246
1920.08041,0.00270
1918.02024,0.00294
1915.96007,0.00241
1913.89990,0.00209
1911.83972,0.00248
1909.77955,0.00287
1907.71938,0.00254
1905.65921,0.00177
1903.59904,0.00114
1901.53886,0.00088
1899.47869,0.00107
1897.41852,0.00157
1895.35835,0.00212
1893.29818,0.00232
1891.23800,0.00241
1889.17783,0.00220
1887.11766,0.00162
1885.05749,0.00149
1882.99731,0.00169
1880.93714,0.00203
1878.87697,0.00240
1876.81680,0.00247
1874.75663,0.00221
1872.69645,0.00197
1870.63628,0.00222
1868.57611,0.00232
1866.51594,0.00162
1864.45577,0.00128
1862.39559,0.00161
1860.33542,0.00205
1858.27525,0.00236
1856.21508,0.00231
1854.15491,0.00187
1852.09473,0.00151
1850.03456,0.00159
1847.97439,0.00183
1845.91422,0.00223
1843.85404,0.00232
1841.79387,0.00155
1839.73370,0.00140
1837.67353,0.00194
1835.61336,0.00216
1833.55318,0.00214
1831.49301,0.00250
1829.43284,0.00248
1827.37267,0.00194
1825.31250,0.00207
1823.25232,0.00199
1821.19215,0.00174
1819.13198,0.00184
1817.07181,0.00191
1815.01163,0.00190
1812.95146,0.00223
1810.89129,0.00257
1808.83112,0.00227
1806.77095,0.00182
1804.71077,0.00187
1802.65060,0.00243
1800.59043,0.00272
1798.53026,0.00227
1796.47009,0.00181
1794.40991,0.00206
1792.34974,0.00244
1790.28957,0.00188
1788.22940,0.00175
1786.16923,0.00255
1784.10905,0.00297
1782.04888,0.00308
1779.98871,0.00295
1777.92854,0.00215
1775.86836,0.00170
1773.80819,0.00236
1771.74802,0.00279
1769.68785,0.00243
1767.62768,0.00240
1765.56750,0.00236
1763.50733,0.00289
1761.44716,0.00326
1759.38699,0.00285
1757.32682,0.00294
1755.26664,0.00282
1753.20647,0.00302
1751.14630,0.00384
1749.08613,0.00375
1747.02596,0.00314
1744.96578,0.00317
1742.90561,0.00381
1740.84544,0.00431
1738.78527,0.00369
1736.72509,0.00350
1734.66492,0.00503
1732.60475,0.00481
1730.54458,0.00391
1728.48441,0.00417
1726.42423,0.00480
1724.36406,0.00521
1722.30389,0.00475
1720.24372,0.00501
1718.18355,0.00660
1716.12337,0.00677
1714.06320,0.00601
1712.00303,0.00586
1709.94286,0.00621
1707.88268,0.00674
1705.82251,0.00684
1703.76234,0.00623
1701.70217,0.00711
1699.64200,0.00779
1697.58182,0.00748
1695.52165,0.00810
1693.46148,0.00783
1691.40131,0.00818
1689.34114,0.00880
1687.28096,0.00934
1685.22079,0.01122
1683.16062,0.01125
1681.10045,0.00962
1679.04028,0.00964
1676.98010,0.01098
1674.91993,0.01155
1672.85976,0.01099
1670.79959,0.01208
1668.73941,0.01288
1666.67924,0.01210
1664.61907,0.01262
1662.55890,0.01372
1660.49873,0.01311
1658.43855,0.01223
1656.37838,0.01310
1654.31821,0.01546
1652.25804,0.01397
1650.19787,0.01089
1648.13769,0.01241
1646.07752,0.01420
1644.01735,0.01339
1641.95718,0.01290
1639.89701,0.01294
1637.83683,0.01351
1635.77666,0.01392
1633.71649,0.01240
1631.65632,0.01167
1629.59614,0.01246
1627.53597,0.01261
1625.47580,0.01233
1623.41563,0.01220
1621.35546,0.01101
1619.29528,0.01081
1617.23511,0.01187
1615.17494,0.01095
1613.11477,0.00966
1611.05460,0.00995
1608.99442,0.01048
1606.93425,0.01044
1604.87408,0.01029
1602.81391,0.01013
1600.75373,0.00967
1598.69356,0.00915
1596.63339,0.00889
1594.57322,0.00868
1592.51305,0.00833
1590.45287,0.00808
1588.39270,0.00799
1586.33253,0.00790
1584.27236,0.00757
1582.21219,0.00682
1580.15201,0.00617
1578.09184,0.00677
1576.03167,0.00689
1573.97150,0.00481
1571.91133,0.00446
1569.85115,0.00571
1567.79098,0.00514
1565.73081,0.00414
1563.67064,0.00332
1561.61046,0.00403
1559.55029,0.00635
1557.49012,0.00436
1555.42995,0.00219
1553.36978,0.00247
1551.30960,0.00321
1549.24943,0.00325
1547.18926,0.00263
1545.12909,0.00252
1543.06892,0.00278
1541.00874,0.00367
1538.94857,0.00282
1536.88840,0.00091
1534.82823,0.00186
1532.76805,0.00284
1530.70788,0.00190
1528.64771,0.00184
1526.58754,0.00208
1524.52737,0.00173
1522.46719,0.00203
1520.40702,0.00140
1518.34685,0.00058
1516.28668,0.00076
1514.22651,0.00037
1512.16633,0.00000
1510.10616,0.00061
1508.04599,0.00275
1505.98582,0.00268
1503.92565,0.00018
1501.86547,-0.00026
1499.80530,0.00098
1497.74513,0.00193
1495.68496,0.00136
1493.62478,0.00039
1491.56461,0.00114
1489.50444,0.00214
1487.44427,0.00163
1485.38410,0.00094
1483.32392,0.00107
1481.26375,0.00137
1479.20358,0.00121
1477.14341,0.00131
1475.08324,0.00189
1473.02306,0.00245
1470.96289,0.00155
1468.90272,0.00061
1466.84255,0.00139
1464.78238,0.00206
1462.72220,0.00110
1460.66203,0.00083
1458.60186,0.00229
1456.54169,0.00259
1454.48151,0.00114
1452.42134,0.00091
1450.36117,0.00154
1448.30100,0.00193
1446.24083,0.00171
1444.18065,0.00148
1442.12048,0.00143
1440.06031,0.00150
1438.00014,0.00233
1435.93997,0.00230
1433.87979,0.00110
1431.81962,0.00123
1429.75945,0.00181
1427.69928,0.00157
1425.63910,0.00154
1423.57893,0.00162
1421.51876,0.00190
1419.45859,0.00269
1417.39842,0.00212
1415.33824,0.00144
1413.27807,0.00187
1411.21790,0.00227
1409.15773,0.00201
1407.09756,0.00181
1405.03738,0.00174
1402.97721,0.00125
1400.91704,0.00127
1398.85687,0.00162
1396.79670,0.00157
1394.73652,0.00151
1392.67635,0.00102
1390.61618,0.00094
1388.55601,0.00176
1386.49583,0.00200
1384.43566,0.00150
1382.37549,0.00140
1380.31532,0.00155
1378.25515,0.00153
1376.19497,0.00164
1374.13480,0.00176
1372.07463,0.00143
1370.01446,0.00142
1367.95429,0.00148
1365.89411,0.00133
1363.83394,0.00162
1361.77377,0.00161
1359.71360,0.00108
1357.65343,0.00091
1355.59325,0.00098
1353.53308,0.00088
1351.47291,0.00084
1349.41274,0.00100
1347.35256,0.00098
1345.29239,0.00066
1343.23222,0.00046
1341.17205,0.00087
1339.11188,0.00125
1337.05170,0.00096
1334.99153,0.00072
1332.93136,0.00084
1330.87119,0.00094
1328.81102,0.00090
1326.75084,0.00091
1324.69067,0.00089
1322.63050,0.00083
1320.57033,0.00086
1318.51015,0.00080
1316.44998,0.00067
1314.38981,0.00082
1312.32964,0.00093
1310.26947,0.00081
1308.20929,0.00081
1306.14912,0.00092
1304.08895,0.00110
1302.02878,0.00130
1299.96861,0.00136
1297.90843,0.00125
1295.84826,0.00118
1293.78809,0.00123
1291.72792,0.00134
1289.66775,0.00155
1287.60757,0.00177
1285.54740,0.00181
1283.48723,0.00177
1281.42706,0.00176
1279.36688,0.00176
1277.30671,0.00185
1275.24654,0.00197
1273.18637,0.00199
1271.12620,0.00190
1269.06602,0.00181
1267.00585,0.00184
1264.94568,0.00199
1262.88551,0.00222
1260.82534,0.00235
1258.76516,0.00225
1256.70499,0.00221
1254.64482,0.00232
1252.58465,0.00230
1250.52447,0.00206
1248.46430,0.00179
1246.40413,0.00169
1244.34396,0.00172
1242.28379,0.00163
1240.22361,0.00150
1238.16344,0.00151
1236.10327,0.00153
1234.04310,0.00142
1231.98293,0.00126
1229.92275,0.00113
1227.86258,0.00106
1225.80241,0.00102
1223.74224,0.00080
1221.68207,0.00055
1219.62189,0.00043
1217.56172,0.00023
1215.50155,0.00000
1213.44138,-0.00006
1211.38120,-0.00004
1209.32103,-0.00007
1207.26086,-0.00007
1205.20069,-0.00000
1203.14052,0.00008
1201.08034,0.00021
1199.02017,0.00036
1196.96000,0.00039
1194.89983,0.00035
1192.83966,0.00035
1190.77948,0.00041
1188.71931,0.00053
1186.65914,0.00082
1184.59897,0.00137
1182.53880,0.00206
1180.47862,0.00268
1178.41845,0.00329
1176.35828,0.00399
1174.29811,0.00465
1172.23793,0.00527
1170.17776,0.00586
1168.11759,0.00647
1166.05742,0.00722
1163.99725,0.00798
1161.93707,0.00855
1159.87690,0.00903
1157.81673,0.00958
1155.75656,0.01022
1153.69639,0.01090
1151.63621,0.01154
1149.57604,0.01216
1147.51587,0.01289
1145.45570,0.01380
1143.39552,0.01480
1141.33535,0.01576
1139.27518,0.01651
1137.21501,0.01711
1135.15484,0.01790
1133.09466,0.01907
1131.03449,0.02032
1128.97432,0.02140
1126.91415,0.02242
1124.85398,0.02358
1122.79380,0.02478
1120.73363,0.02571
1118.67346,0.02655
1116.61329,0.02773
1114.55312,0.02903
1112.49294,0.03016
1110.43277,0.03109
1108.37260,0.03206
1106.31243,0.03326
1104.25225,0.03451
1102.19208,0.03550
1100.13191,0.03629
1098.07174,0.03712
1096.01157,0.03806
1093.95139,0.03899
1091.89122,0.03984
1089.83105,0.04069
1087.77088,0.04148
1085.71071,0.04226
1083.65053,0.04304
1081.59036,0.04366
1079.53019,0.04415
1077.47002,0.04468
1075.40985,0.04515
1073.34967,0.04544
1071.28950,0.04570
1069.22933,0.04588
1067.16916,0.04576
1065.10898,0.04545
1063.04881,0.04513
1060.98864,0.04486
1058.92847,0.04442
1056.86830,0.04357
1054.80812,0.04262
1052.74795,0.04186
1050.68778,0.04108
1048.62761,0.04014
1046.56744,0.03903
1044.50726,0.03777
1042.44709,0.03645
1040.38692,0.03510
1038.32675,0.03379
1036.26657,0.03256
1034.20640,0.03132
1032.14623,0.03017
1030.08606,0.02923
1028.02589,0.02826
1025.96571,0.02734
1023.90554,0.02675
1021.84537,0.02617
1019.78520,0.02529
1017.72503,0.02437
1015.66485,0.02368
1013.60468,0.02324
1011.54451,0.02317
1009.48434,0.02328
1007.42417,0.02320
1005.36399,0.02312
1003.30382,0.02340
1001.24365,0.02388
999.18348,0.02441
997.12330,0.02511
995.06313,0.02597
993.00296,0.02692
990.94279,0.02777
988.88262,0.02830
986.82244,0.02858
984.76227,0.02879
982.70210,0.02882
980.64193,0.02862
978.58176,0.02838
976.52158,0.02785
974.46141,0.02680
972.40124,0.02563
970.34107,0.02457
968.28089,0.02327
966.22072,0.02168
964.16055,0.02022
962.10038,0.01905
960.04021,0.01806
957.98003,0.01727
955.91986,0.01654
953.85969,0.01580
951.79952,0.01526
949.73935,0.01485
947.67917,0.01447
945.61900,0.01416
943.55883,0.01383
941.49866,0.01353
939.43849,0.01336
937.37831,0.01326
935.31814,0.01319
933.25797,0.01328
931.19780,0.01325
929.13762,0.01286
927.07745,0.01264
925.01728,0.01258
922.95711,0.01223
920.89694,0.01186
918.83676,0.01154
916.77659,0.01101
914.71642,0.01026
912.65625,0.00946
910.59608,0.00903
908.53590,0.00910
906.47573,0.00940
904.41556,0.00971
902.35539,0.00976
900.29522,0.00955
898.23504,0.00940
896.17487,0.00925
894.11470,0.00910
892.05453,0.00921
889.99435,0.00946
887.93418,0.00957
885.87401,0.00979
883.81384,0.01026
881.75367,0.01070
879.69349,0.01106
877.63332,0.01148
875.57315,0.01173
873.51298,0.01188
871.45281,0.01226
869.39263,0.01276
867.33246,0.01310
865.27229,0.01301
863.21212,0.01262
861.15194,0.01263
859.09177,0.01303
857.03160,0.01321
854.97143,0.01320
852.91126,0.01299
850.85108,0.01222
848.79091,0.01133
846.73074,0.01118
844.67057,0.01123
842.61040,0.01054
840.55022,0.00948
838.49005,0.00880
836.42988,0.00852
834.36971,0.00812
832.30954,0.00731
830.24936,0.00649
828.18919,0.00613
826.12902,0.00603
824.06885,0.00563
822.00867,0.00505
819.94850,0.00464
817.88833,0.00426
815.82816,0.00389
813.76799,0.00374
811.70781,0.00369
809.64764,0.00374
807.58747,0.00401
805.52730,0.00423
803.46713,0.00400
801.40695,0.00318
799.34678,0.00249
797.28661,0.00259
795.22644,0.00282
793.16627,0.00287
791.10609,0.00312
789.04592,0.00324
786.98575,0.00272
784.92558,0.00202
782.86540,0.00174
780.80523,0.00172
778.74506,0.00195
776.68489,0.00262
774.62472,0.00287
772.56454,0.00199
770.50437,0.00125
768.44420,0.00143
766.38403,0.00179
764.32386,0.00182
762.26368,0.00143
760.20351,0.00073
758.14334,0.00037
756.08317,0.00073
754.02299,0.00131
751.96282,0.00137
749.90265,0.00087
747.84248,0.00052
745.78231,0.00076
743.72213,0.00126
741.66196,0.00161
739.60179,0.00132
737.54162,0.00043
735.48145,0.00014
733.42127,0.00056
731.36110,0.00066
729.30093,0.00049
727.24076,0.00028
725.18059,0.00021
723.12041,0.00104
721.06024,0.00223
719.00007,0.00283
716.93990,0.00203
714.87972,0.00084
712.81955,0.00025
710.75938,0.00022
708.69921,0.00050
706.63904,0.00095
704.57886,0.00148
702.51869,0.00190
700.45852,0.00184
698.39835,0.00159
696.33818,0.00182
694.27800,0.00202
692.21783,0.00146
690.15766,0.00093
688.09749,0.00108
686.03731,0.00116
683.97714,0.00056
681.91697,0.00010
679.85680,0.00057
677.79663,0.00118
675.73645,0.00103
673.67628,0.00119
671.61611,0.00243
669.55594,0.00161
667.49577,-0.00029
665.43559,0.00190
663.37542,0.00122
661.31525,0.00106
659.25508,0.00188
657.19491,0.00223
655.13473,0.00284
653.07456,0.00421
651.01439,0.00453
648.95422,0.00334
646.89404,0.00267
644.83387,0.00279
642.77370,0.00267
640.71353,0.00167
638.65336,0.00035
636.59318,0.00000
634.53301,0.00068
632.47284,0.00157
630.41267,0.00217
628.35250,0.00258
626.29232,0.00307
624.23215,0.00315
622.17198,0.00233
620.11181,0.00199
618.05164,0.00339
615.99146,0.00429
613.93129,0.00242
611.87112,0.00034
609.81095,0.00019
607.75077,0.00079
605.69060,0.00069
603.63043,0.00017
601.57026,0.00060
599.51009,0.00000
