3996.73391,0.00000
3994.67373,0.00008
3992.61356,0.00014
3990.55339,0.00025
3988.49322,0.00053
3986.43305,0.00072
3984.37287,0.00079
3982.31270,0.00100
3980.25253,0.00107
3978.19236,0.00077
3976.13219,0.00039
3974.07201,0.00024
3972.01184,0.00032
3969.95167,0.00046
3967.89150,0.00061
3965.83133,0.00075
3963.77115,0.00084
3961.71098,0.00095
3959.65081,0.00098
3957.59064,0.00081
3955.53046,0.00046
3953.47029,0.00020
3951.41012,0.00030
3949.34995,0.00070
3947.28978,0.00095
3945.22960,0.00076
3943.16943,0.00048
3941.10926,0.00039
3939.04909,0.00035
3936.98892,0.00029
3934.92874,0.00026
3932.86857,0.00024
3930.80840,0.00027
3928.74823,0.00061
3926.68805,0.00129
3924.62788,0.00192
3922.56771,0.00205
3920.50754,0.00175
3918.44737,0.00139
3916.38719,0.00111
3914.32702,0.00070
3912.26685,0.00018
3910.20668,0.00000
3908.14651,0.00021
3906.08633,0.00060
3904.02616,0.00106
3901.96599,0.00140
3899.90582,0.00147
3897.84565,0.00127
3895.78547,0.00094
3893.72530,0.00069
3891.66513,0.00063
3889.60496,0.00056
3887.54478,0.00027
3885.48461,0.00010
3883.42444,0.00026
3881.36427,0.00072
3879.30410,0.00128
3877.24392,0.00143
3875.18375,0.00099
3873.12358,0.00041
3871.06341,0.00043
3869.00324,0.00106
3866.94306,0.00145
3864.88289,0.00137
3862.82272,0.00132
3860.76255,0.00148
3858.70237,0.00146
3856.64220,0.00122
3854.58203,0.00134
3852.52186,0.00199
3850.46169,0.00216
3848.40151,0.00171
3846.34134,0.00134
3844.28117,0.00134
3842.22100,0.00138
3840.16083,0.00119
3838.10065,0.00094
3836.04048,0.00066
3833.98031,0.00043
3831.92014,0.00064
3829.85997,0.00112
3827.79979,0.00137
3825.73962,0.00135
3823.67945,0.00115
3821.61928,0.00095
3819.55910,0.00103
3817.49893,0.00117
3815.43876,0.00112
3813.37859,0.00085
3811.31842,0.00043
3809.25824,0.00004
3807.19807,0.00000
3805.13790,0.00033
3803.07773,0.00073
3801.01756,0.00103
3798.95738,0.00094
3796.89721,0.00068
3794.83704,0.00077
3792.77687,0.00114
3790.71670,0.00151
3788.65652,0.00163
3786.59635,0.00148
3784.53618,0.00134
3782.47601,0.00140
3780.41583,0.00152
3778.35566,0.00135
3776.29549,0.00089
3774.23532,0.00048
3772.17515,0.00034
3770.11497,0.00052
3768.05480,0.00085
3765.99463,0.00081
3763.93446,0.00044
3761.87429,0.00019
3759.81411,0.00030
3757.75394,0.00065
3755.69377,0.00098
3753.63360,0.00127
3751.57342,0.00163
3749.51325,0.00177
3747.45308,0.00158
3745.39291,0.00138
3743.33274,0.00113
3741.27256,0.00066
3739.21239,0.00042
3737.15222,0.00084
3735.09205,0.00145
3733.03188,0.00131
3730.97170,0.00070
3728.91153,0.00054
3726.85136,0.00096
3724.79119,0.00142
3722.73102,0.00163
3720.67084,0.00173
3718.61067,0.00167
3716.55050,0.00147
3714.49033,0.00142
3712.43015,0.00163
3710.36998,0.00181
3708.30981,0.00164
3706.24964,0.00123
3704.18947,0.00081
3702.12929,0.00059
3700.06912,0.00081
3698.00895,0.00120
3695.94878,0.00127
3693.88861,0.00086
3691.82843,0.00036
3689.76826,0.00055
3687.70809,0.00138
3685.64792,0.00178
3683.58775,0.00143
3681.52757,0.00100
3679.46740,0.00070
3677.40723,0.00046
3675.34706,0.00099
3673.28688,0.00195
3671.22671,0.00208
3669.16654,0.00185
3667.10637,0.00210
3665.04620,0.00255
3662.98602,0.00288
3660.92585,0.00301
3658.86568,0.00287
3656.80551,0.00269
3654.74534,0.00288
3652.68516,0.00338
3650.62499,0.00404
3648.56482,0.00476
3646.50465,0.00502
3644.44447,0.00486
3642.38430,0.00483
3640.32413,0.00501
3638.26396,0.00490
3636.20379,0.00454
3634.14361,0.00466
3632.08344,0.00513
3630.02327,0.00539
3627.96310,0.00586
3625.90293,0.00656
3623.84275,0.00693
3621.78258,0.00737
3619.72241,0.00832
3617.66224,0.00912
3615.60207,0.00915
3613.54189,0.00886
3611.48172,0.00874
3609.42155,0.00898
3607.36138,0.00959
3605.30120,0.01041
3603.24103,0.01133
3601.18086,0.01200
3599.12069,0.01214
3597.06052,0.01201
3595.00034,0.01193
3592.94017,0.01204
3590.88000,0.01228
3588.81983,0.01257
3586.75966,0.01277
3584.69948,0.01285
3582.63931,0.01303
3580.57914,0.01346
3578.51897,0.01383
3576.45879,0.01408
3574.39862,0.01456
3572.33845,0.01509
3570.27828,0.01524
3568.21811,0.01527
3566.15793,0.01563
3564.09776,0.01612
3562.03759,0.01645
3559.97742,0.01672
3557.91725,0.01714
3555.85707,0.01772
3553.79690,0.01812
3551.73673,0.01817
3549.67656,0.01811
3547.61639,0.01830
3545.55621,0.01885
3543.49604,0.01951
3541.43587,0.02008
3539.37570,0.02054
3537.31552,0.02078
3535.25535,0.02090
3533.19518,0.02131
3531.13501,0.02207
3529.07484,0.02289
3527.01466,0.02358
3524.95449,0.02386
3522.89432,0.02363
3520.83415,0.02328
3518.77398,0.02329
3516.71380,0.02374
3514.65363,0.02428
3512.59346,0.02453
3510.53329,0.02460
3508.47312,0.02470
3506.41294,0.02475
3504.35277,0.02491
3502.29260,0.02553
3500.23243,0.02619
3498.17225,0.02643
3496.11208,0.02668
3494.05191,0.02725
3491.99174,0.02792
3489.93157,0.02839
3487.87139,0.02839
3485.81122,0.02824
3483.75105,0.02836
3481.69088,0.02857
3479.63071,0.02868
3477.57053,0.02905
3475.51036,0.02961
3473.45019,0.02986
3471.39002,0.02979
3469.32984,0.02975
3467.26967,0.03000
3465.20950,0.03036
3463.14933,0.03062
3461.08916,0.03087
3459.02898,0.03116
3456.96881,0.03161
3454.90864,0.03213
3452.84847,0.03239
3450.78830,0.03242
3448.72812,0.03251
3446.66795,0.03279
3444.60778,0.03302
3442.54761,0.03301
3440.48744,0.03297
3438.42726,0.03318
3436.36709,0.03366
3434.30692,0.03415
3432.24675,0.03436
3430.18657,0.03445
3428.12640,0.03478
3426.06623,0.03533
3424.00606,0.03585
3421.94589,0.03587
3419.88571,0.03541
3417.82554,0.03518
3415.76537,0.03550
3413.70520,0.03603
3411.64503,0.03642
3409.58485,0.03665
3407.52468,0.03671
3405.46451,0.03667
3403.40434,0.03672
3401.34416,0.03696
3399.28399,0.03732
3397.22382,0.03757
3395.16365,0.03756
3393.10348,0.03766
3391.04330,0.03802
3388.98313,0.03821
3386.92296,0.03807
3384.86279,0.03805
3382.80262,0.03839
3380.74244,0.03872
3378.68227,0.03893
3376.62210,0.03913
3374.56193,0.03915
3372.50176,0.03910
3370.44158,0.03922
3368.38141,0.03939
3366.32124,0.03942
3364.26107,0.03940
3362.20089,0.03940
3360.14072,0.03930
3358.08055,0.03931
3356.02038,0.03964
3353.96021,0.04001
3351.90003,0.04029
3349.83986,0.04057
3347.77969,0.04065
3345.71952,0.04059
3343.65935,0.04061
3341.59917,0.04042
3339.53900,0.03999
3337.47883,0.03980
3335.41866,0.04000
3333.35849,0.04041
3331.29831,0.04079
3329.23814,0.04095
3327.17797,0.04095
3325.11780,0.04083
3323.05762,0.04059
3320.99745,0.04052
3318.93728,0.04068
3316.87711,0.04087
3314.81694,0.04102
3312.75676,0.04118
3310.69659,0.04125
3308.63642,0.04107
3306.57625,0.04091
3304.51608,0.04108
3302.45590,0.04133
3300.39573,0.04128
3298.33556,0.04105
3296.27539,0.04106
3294.21521,0.04144
3292.15504,0.04187
3290.09487,0.04194
3288.03470,0.04178
3285.97453,0.04173
3283.91435,0.04176
3281.85418,0.04183
3279.79401,0.04182
3277.73384,0.04176
3275.67367,0.04197
3273.61349,0.04244
3271.55332,0.04267
3269.49315,0.04233
3267.43298,0.04178
3265.37281,0.04159
3263.31263,0.04179
3261.25246,0.04203
3259.19229,0.04218
3257.13212,0.04227
3255.07194,0.04241
3253.01177,0.04245
3250.95160,0.04227
3248.89143,0.04226
3246.83126,0.04241
3244.77108,0.04231
3242.71091,0.04217
3240.65074,0.04221
3238.59057,0.04210
3236.53040,0.04186
3234.47022,0.04187
3232.41005,0.04221
3230.34988,0.04259
3228.28971,0.04262
3226.22954,0.04249
3224.16936,0.04256
3222.10919,0.04254
3220.04902,0.04235
3217.98885,0.04229
3215.92867,0.04231
3213.86850,0.04218
3211.80833,0.04206
3209.74816,0.04210
3207.68799,0.04210
3205.62781,0.04195
3203.56764,0.04184
3201.50747,0.04191
3199.44730,0.04197
3197.38713,0.04194
3195.32695,0.04181
3193.26678,0.04167
3191.20661,0.04164
3189.14644,0.04157
3187.08626,0.04140
3185.02609,0.04129
3182.96592,0.04125
3180.90575,0.04115
3178.84558,0.04101
3176.78540,0.04106
3174.72523,0.04105
3172.66506,0.04059
3170.60489,0.04003
3168.54472,0.03994
3166.48454,0.04011
3164.42437,0.04015
3162.36420,0.04018
3160.30403,0.04021
3158.24386,0.04023
3156.18368,0.04027
3154.12351,0.04014
3152.06334,0.03968
3150.00317,0.03924
3147.94299,0.03922
3145.88282,0.03927
3143.82265,0.03901
3141.76248,0.03881
3139.70231,0.03903
3137.64213,0.03914
3135.58196,0.03871
3133.52179,0.03813
3131.46162,0.03784
3129.40145,0.03784
3127.34127,0.03789
3125.28110,0.03784
3123.22093,0.03771
3121.16076,0.03756
3119.10058,0.03735
3117.04041,0.03704
3114.98024,0.03675
3112.92007,0.03663
3110.85990,0.03672
3108.79972,0.03679
3106.73955,0.03668
3104.67938,0.03649
3102.61921,0.03617
3100.55904,0.03559
3098.49886,0.03509
3096.43869,0.03507
3094.37852,0.03542
3092.31835,0.03560
3090.25818,0.03541
3088.19800,0.03514
3086.13783,0.03491
3084.07766,0.03464
3082.01749,0.03445
3079.95731,0.03435
3077.89714,0.03420
3075.83697,0.03416
3073.77680,0.03415
3071.71663,0.03378
3069.65645,0.03329
3067.59628,0.03317
3065.53611,0.03328
3063.47594,0.03322
3061.41577,0.03299
3059.35559,0.03266
3057.29542,0.03231
3055.23525,0.03215
3053.17508,0.03215
3051.11491,0.03215
3049.05473,0.03215
3046.99456,0.03200
3044.93439,0.03163
3042.87422,0.03133
3040.81404,0.03127
3038.75387,0.03133
3036.69370,0.03118
3034.63353,0.03080
3032.57336,0.03041
3030.51318,0.03002
3028.45301,0.02978
3026.39284,0.02984
3024.33267,0.02993
3022.27250,0.02972
3020.21232,0.02939
3018.15215,0.02917
3016.09198,0.02896
3014.03181,0.02877
3011.97163,0.02867
3009.91146,0.02866
3007.85129,0.02864
3005.79112,0.02841
3003.73095,0.02795
3001.67077,0.02761
2999.61060,0.02750
2997.55043,0.02739
2995.49026,0.02714
2993.43009,0.02694
2991.36991,0.02697
2989.30974,0.02699
2987.24957,0.02673
2985.18940,0.02629
2983.12923,0.02607
2981.06905,0.02624
2979.00888,0.02645
2976.94871,0.02638
2974.88854,0.02599
2972.82836,0.02557
2970.76819,0.02542
2968.70802,0.02549
2966.64785,0.02556
2964.58768,0.02563
2962.52750,0.02574
2960.46733,0.02585
2958.40716,0.02580
2956.34699,0.02557
2954.28682,0.02537
2952.22664,0.02537
2950.16647,0.02542
2948.10630,0.02527
2946.04613,0.02511
2943.98596,0.02512
2941.92578,0.02506
2939.86561,0.02500
2937.80544,0.02503
2935.74527,0.02501
2933.68509,0.02489
2931.62492,0.02478
2929.56475,0.02471
2927.50458,0.02459
2925.44441,0.02445
2923.38423,0.02444
2921.32406,0.02447
2919.26389,0.02444
2917.20372,0.02432
2915.14355,0.02408
2913.08337,0.02390
2911.02320,0.02384
2908.96303,0.02393
2906.90286,0.02400
2904.84268,0.02379
2902.78251,0.02342
2900.72234,0.02326
2898.66217,0.02341
2896.60200,0.02352
2894.54182,0.02331
2892.48165,0.02307
2890.42148,0.02309
2888.36131,0.02316
2886.30114,0.02318
2884.24096,0.02305
2882.18079,0.02270
2880.12062,0.02253
2878.06045,0.02258
2876.00028,0.02254
2873.94010,0.02254
2871.87993,0.02266
2869.81976,0.02262
2867.75959,0.02239
2865.69941,0.02221
2863.63924,0.02206
2861.57907,0.02181
2859.51890,0.02161
2857.45873,0.02150
2855.39855,0.02146
2853.33838,0.02147
2851.27821,0.02129
2849.21804,0.02091
2847.15787,0.02074
2845.09769,0.02081
2843.03752,0.02086
2840.97735,0.02085
2838.91718,0.02074
2836.85700,0.02064
2834.79683,0.02071
2832.73666,0.02085
2830.67649,0.02091
2828.61632,0.02083
2826.55614,0.02067
2824.49597,0.02057
2822.43580,0.02053
2820.37563,0.02035
2818.31546,0.02000
2816.25528,0.01974
2814.19511,0.01969
2812.13494,0.01971
2810.07477,0.01969
2808.01460,0.01959
2805.95442,0.01948
2803.89425,0.01954
2801.83408,0.01965
2799.77391,0.01946
2797.71373,0.01909
2795.65356,0.01892
2793.59339,0.01888
2791.53322,0.01890
2789.47305,0.01898
2787.41287,0.01894
2785.35270,0.01872
2783.29253,0.01858
2781.23236,0.01860
2779.17219,0.01863
2777.11201,0.01857
2775.05184,0.01828
2772.99167,0.01782
2770.93150,0.01762
2768.87133,0.01771
2766.81115,0.01777
2764.75098,0.01788
2762.69081,0.01808
2760.63064,0.01808
2758.57046,0.01786
2756.51029,0.01762
2754.45012,0.01743
2752.38995,0.01724
2750.32978,0.01704
2748.26960,0.01694
2746.20943,0.01687
2744.14926,0.01671
2742.08909,0.01667
2740.02892,0.01668
2737.96874,0.01654
2735.90857,0.01642
2733.84840,0.01652
2731.78823,0.01662
2729.72805,0.01651
2727.66788,0.01626
2725.60771,0.01603
2723.54754,0.01587
2721.48737,0.01567
2719.42719,0.01546
2717.36702,0.01535
2715.30685,0.01524
2713.24668,0.01515
2711.18651,0.01521
2709.12633,0.01527
2707.06616,0.01514
2705.00599,0.01493
2702.94582,0.01483
2700.88565,0.01483
2698.82547,0.01479
2696.76530,0.01479
2694.70513,0.01490
2692.64496,0.01493
2690.58478,0.01465
2688.52461,0.01432
2686.46444,0.01429
2684.40427,0.01437
2682.34410,0.01418
2680.28392,0.01385
2678.22375,0.01368
2676.16358,0.01366
2674.10341,0.01360
2672.04324,0.01333
2669.98306,0.01302
2667.92289,0.01301
2665.86272,0.01311
2663.80255,0.01306
2661.74238,0.01301
2659.68220,0.01287
2657.62203,0.01267
2655.56186,0.01262
2653.50169,0.01257
2651.44151,0.01256
2649.38134,0.01256
2647.32117,0.01237
2645.26100,0.01219
2643.20083,0.01213
2641.14065,0.01195
2639.08048,0.01159
2637.02031,0.01132
2634.96014,0.01127
2632.89997,0.01128
2630.83979,0.01119
2628.77962,0.01100
2626.71945,0.01100
2624.65928,0.01112
2622.59910,0.01097
2620.53893,0.01067
2618.47876,0.01050
2616.41859,0.01047
2614.35842,0.01050
2612.29824,0.01059
2610.23807,0.01060
2608.17790,0.01047
2606.11773,0.01045
2604.05756,0.01057
2601.99738,0.01055
2599.93721,0.01038
2597.87704,0.01024
2595.81687,0.01007
2593.75670,0.00985
2591.69652,0.00978
2589.63635,0.00987
2587.57618,0.01003
2585.51601,0.01007
2583.45583,0.00980
2581.39566,0.00948
2579.33549,0.00951
2577.27532,0.00968
2575.21515,0.00973
2573.15497,0.00958
2571.09480,0.00952
2569.03463,0.00983
2566.97446,0.01020
2564.91429,0.01007
2562.85411,0.00945
2560.79394,0.00910
2558.73377,0.00916
2556.67360,0.00917
2554.61342,0.00918
2552.55325,0.00916
2550.49308,0.00916
2548.43291,0.00921
2546.37274,0.00920
2544.31256,0.00933
2542.25239,0.00942
2540.19222,0.00921
2538.13205,0.00920
2536.07188,0.00943
2534.01170,0.00933
2531.95153,0.00907
2529.89136,0.00910
2527.83119,0.00917
2525.77102,0.00929
2523.71084,0.00960
2521.65067,0.00976
2519.59050,0.00968
2517.53033,0.00975
2515.47015,0.01002
2513.40998,0.01005
2511.34981,0.00972
2509.28964,0.00949
2507.22947,0.00956
2505.16929,0.00963
2503.10912,0.00967
2501.04895,0.00979
2498.98878,0.00976
2496.92861,0.00967
2494.86843,0.00988
2492.80826,0.01036
2490.74809,0.01083
2488.68792,0.01095
2486.62775,0.01077
2484.56757,0.01069
2482.50740,0.01067
2480.44723,0.01052
2478.38706,0.01052
2476.32688,0.01045
2474.26671,0.01008
2472.20654,0.00988
2470.14637,0.01007
2468.08620,0.01027
2466.02602,0.01033
2463.96585,0.01047
2461.90568,0.01073
2459.84551,0.01093
2457.78534,0.01122
2455.72516,0.01172
2453.66499,0.01192
2451.60482,0.01157
2449.54465,0.01101
2447.48447,0.01048
2445.42430,0.01033
2443.36413,0.01069
2441.30396,0.01109
2439.24379,0.01108
2437.18361,0.01089
2435.12344,0.01086
2433.06327,0.01081
2431.00310,0.01076
2428.94293,0.01080
2426.88275,0.01090
2424.82258,0.01099
2422.76241,0.01083
2420.70224,0.01072
2418.64207,0.01087
2416.58189,0.01078
2414.52172,0.01042
2412.46155,0.01033
2410.40138,0.01069
2408.34120,0.01106
2406.28103,0.01106
2404.22086,0.01074
2402.16069,0.01047
2400.10052,0.01058
2398.04034,0.01090
2395.98017,0.01121
2393.92000,0.01111
2391.85983,0.01067
2389.79966,0.01033
2387.73948,0.01039
2385.67931,0.01069
2383.61914,0.01099
2381.55897,0.01117
2379.49880,0.01108
2377.43862,0.01064
2375.37845,0.01016
2373.31828,0.00975
2371.25811,0.00890
2369.19793,0.00752
2367.13776,0.00661
2365.07759,0.00720
2363.01742,0.00884
2360.95725,0.01061
2358.89707,0.01199
2356.83690,0.01213
2354.77673,0.01127
2352.71656,0.01021
2350.65639,0.00947
2348.59621,0.00921
2346.53604,0.00936
2344.47587,0.01024
2342.41570,0.01184
2340.35552,0.01219
2338.29535,0.01088
2336.23518,0.00992
2334.17501,0.00912
2332.11484,0.00763
2330.05466,0.00676
2327.99449,0.00736
2325.93432,0.00855
2323.87415,0.00931
2321.81398,0.00961
2319.75380,0.00950
2317.69363,0.00917
2315.63346,0.00954
2313.57329,0.01052
2311.51312,0.01089
2309.45294,0.01024
2307.39277,0.00941
2305.33260,0.00927
2303.27243,0.00983
2301.21225,0.01027
2299.15208,0.01006
2297.09191,0.00981
2295.03174,0.01020
2292.97157,0.01085
2290.91139,0.01108
2288.85122,0.01083
2286.79105,0.01035
2284.73088,0.00989
2282.67071,0.00961
2280.61053,0.00938
2278.55036,0.00886
2276.49019,0.00834
2274.43002,0.00827
2272.36984,0.00827
2270.30967,0.00805
2268.24950,0.00796
2266.18933,0.00798
2264.12916,0.00784
2262.06898,0.00775
2260.00881,0.00788
2257.94864,0.00782
2255.88847,0.00751
2253.82830,0.00768
2251.76812,0.00802
2249.70795,0.00786
2247.64778,0.00771
2245.58761,0.00761
2243.52744,0.00758
2241.46726,0.00789
2239.40709,0.00799
2237.34692,0.00762
2235.28675,0.00732
2233.22657,0.00705
2231.16640,0.00677
2229.10623,0.00664
2227.04606,0.00639
2224.98589,0.00617
2222.92571,0.00608
2220.86554,0.00583
2218.80537,0.00558
2216.74520,0.00562
2214.68503,0.00587
2212.62485,0.00583
2210.56468,0.00532
2208.50451,0.00514
2206.44434,0.00546
2204.38417,0.00566
2202.32399,0.00570
2200.26382,0.00559
2198.20365,0.00519
2196.14348,0.00488
2194.08330,0.00525
2192.02313,0.00591
2189.96296,0.00580
2187.90279,0.00469
2185.84262,0.00368
2183.78244,0.00389
2181.72227,0.00474
2179.66210,0.00515
2177.60193,0.00561
2175.54176,0.00675
2173.48158,0.00747
2171.42141,0.00670
2169.36124,0.00528
2167.30107,0.00451
2165.24089,0.00440
2163.18072,0.00398
2161.12055,0.00235
2159.06038,0.00065
2157.00021,0.00112
2154.94003,0.00282
2152.87986,0.00311
2150.81969,0.00214
2148.75952,0.00200
2146.69935,0.00259
2144.63917,0.00286
2142.57900,0.00297
2140.51883,0.00305
2138.45866,0.00334
2136.39849,0.00341
2134.33831,0.00328
2132.27814,0.00354
2130.21797,0.00338
2128.15780,0.00302
2126.09762,0.00315
2124.03745,0.00318
2121.97728,0.00285
2119.91711,0.00260
2117.85694,0.00311
2115.79676,0.00401
2113.73659,0.00413
2111.67642,0.00364
2109.61625,0.00332
2107.55608,0.00330
2105.49590,0.00331
2103.43573,0.00323
2101.37556,0.00365
2099.31539,0.00476
2097.25521,0.00525
2095.19504,0.00472
2093.13487,0.00415
2091.07470,0.00372
2089.01453,0.00351
2086.95435,0.00386
2084.89418,0.00430
2082.83401,0.00454
2080.77384,0.00479
2078.71367,0.00485
2076.65349,0.00437
2074.59332,0.00335
2072.53315,0.00265
2070.47298,0.00281
2068.41281,0.00309
2066.35263,0.00295
2064.29246,0.00283
2062.23229,0.00295
2060.17212,0.00322
2058.11194,0.00370
2056.05177,0.00388
2053.99160,0.00391
2051.93143,0.00380
2049.87126,0.00248
2047.81108,0.00108
2045.75091,0.00123
2043.69074,0.00230
2041.63057,0.00274
2039.57040,0.00203
2037.51022,0.00162
2035.45005,0.00213
2033.38988,0.00257
2031.32971,0.00265
2029.26954,0.00283
2027.20936,0.00314
2025.14919,0.00275
2023.08902,0.00159
2021.02885,0.00097
2018.96867,0.00130
2016.90850,0.00234
2014.84833,0.00340
2012.78816,0.00319
2010.72799,0.00178
2008.66781,0.00029
2006.60764,0.00000
2004.54747,0.00101
2002.48730,0.00205
2000.42713,0.00246
1998.36695,0.00235
1996.30678,0.00232
1994.24661,0.00299
1992.18644,0.00348
1990.12626,0.00370
1988.06609,0.00489
1986.00592,0.00568
1983.94575,0.00471
1981.88558,0.00334
1979.82540,0.00220
1977.76523,0.00125
1975.70506,0.00086
1973.64489,0.00111
1971.58472,0.00193
1969.52454,0.00228
1967.46437,0.00172
1965.40420,0.00116
1963.34403,0.00092
1961.28386,0.00085
1959.22368,0.00058
1957.16351,0.00000
1955.10334,0.00027
1953.04317,0.00175
1950.98299,0.00282
1948.92282,0.00250
1946.86265,0.00156
1944.80248,0.00124
1942.74231,0.00164
1940.68213,0.00199
1938.62196,0.00193
1936.56179,0.00173
1934.50162,0.00202
1932.44145,0.00280
1930.38127,0.00352
1928.32110,0.00361
1926.26093,0.00290
1924.20076,0.00215
1922.14059,0.00200
1920.08041,0.00219
1918.02024,0.00247
1915.96007,0.00240
1913.89990,0.00172
1911.83972,0.00115
1909.77955,0.00138
1907.71938,0.00218
1905.65921,0.00282
1903.59904,0.00283
1901.53886,0.00247
1899.47869,0.00221
1897.41852,0.00205
1895.35835,0.00176
1893.29818,0.00143
1891.23800,0.00143
1889.17783,0.00186
1887.11766,0.00235
1885.05749,0.00259
1882.99731,0.00271
1880.93714,0.00278
1878.87697,0.00264
1876.81680,0.00241
1874.75663,0.00241
1872.69645,0.00250
1870.63628,0.00252
1868.57611,0.00273
1866.51594,0.00318
1864.45577,0.00352
1862.39559,0.00363
1860.33542,0.00349
1858.27525,0.00302
1856.21508,0.00256
1854.15491,0.00259
1852.09473,0.00294
1850.03456,0.00304
1847.97439,0.00278
1845.91422,0.00253
1843.85404,0.00255
1841.79387,0.00278
1839.73370,0.00307
1837.67353,0.00331
1835.61336,0.00335
1833.55318,0.00306
1831.49301,0.00256
1829.43284,0.00227
1827.37267,0.00239
1825.31250,0.00275
1823.25232,0.00317
1821.19215,0.00336
1819.13198,0.00323
1817.07181,0.00303
1815.01163,0.00295
1812.95146,0.00290
1810.89129,0.00287
1808.83112,0.00303
1806.77095,0.00333
1804.71077,0.00350
1802.65060,0.00344
1800.59043,0.00333
1798.53026,0.00331
1796.47009,0.00331
1794.40991,0.00315
1792.34974,0.00289
1790.28957,0.00277
1788.22940,0.00288
1786.16923,0.00312
1784.10905,0.00346
1782.04888,0.00386
1779.98871,0.00419
1777.92854,0.00427
1775.86836,0.00413
1773.80819,0.00394
1771.74802,0.00384
1769.68785,0.00383
1767.62768,0.00383
1765.56750,0.00379
1763.50733,0.00385
1761.44716,0.00406
1759.38699,0.00422
1757.32682,0.00432
1755.26664,0.00464
1753.20647,0.00512
1751.14630,0.00544
1749.08613,0.00551
1747.02596,0.00543
1744.96578,0.00537
1742.90561,0.00552
1740.84544,0.00583
1738.78527,0.00598
1736.72509,0.00578
1734.66492,0.00563
1732.60475,0.00591
1730.54458,0.00633
1728.48441,0.00648
1726.42423,0.00637
1724.36406,0.00626
1722.30389,0.00641
1720.24372,0.00676
1718.18355,0.00711
1716.12337,0.00722
1714.06320,0.00717
1712.00303,0.00734
1709.94286,0.00774
1707.88268,0.00817
1705.82251,0.00846
1703.76234,0.00860
1701.70217,0.00867
1699.64200,0.00879
1697.58182,0.00911
1695.52165,0.00963
1693.46148,0.01010
1691.40131,0.01034
1689.34114,0.01039
1687.28096,0.01038
1685.22079,0.01056
1683.16062,0.01093
1681.10045,0.01114
1679.04028,0.01120
1676.98010,0.01134
1674.91993,0.01172
1672.85976,0.01220
1670.79959,0.01257
1668.73941,0.01284
1666.67924,0.01304
1664.61907,0.01320
1662.55890,0.01328
1660.49873,0.01324
1658.43855,0.01316
1656.37838,0.01306
1654.31821,0.01297
1652.25804,0.01307
1650.19787,0.01313
1648.13769,0.01294
1646.07752,0.01284
1644.01735,0.01296
1641.95718,0.01295
1639.89701,0.01272
1637.83683,0.01262
1635.77666,0.01289
1633.71649,0.01310
1631.65632,0.01294
1629.59614,0.01260
1627.53597,0.01221
1625.47580,0.01188
1623.41563,0.01163
1621.35546,0.01137
1619.29528,0.01111
1617.23511,0.01101
1615.17494,0.01100
1613.11477,0.01080
1611.05460,0.01056
1608.99442,0.01050
1606.93425,0.01044
1604.87408,0.01014
1602.81391,0.00974
1600.75373,0.00945
1598.69356,0.00920
1596.63339,0.00892
1594.57322,0.00865
1592.51305,0.00839
1590.45287,0.00810
1588.39270,0.00776
1586.33253,0.00735
1584.27236,0.00694
1582.21219,0.00666
1580.15201,0.00652
1578.09184,0.00632
1576.03167,0.00603
1573.97150,0.00575
1571.91133,0.00550
1569.85115,0.00524
1567.79098,0.00505
1565.73081,0.00493
1563.67064,0.00476
1561.61046,0.00449
1559.55029,0.00424
1557.49012,0.00410
1555.42995,0.00399
1553.36978,0.00391
1551.30960,0.00385
1549.24943,0.00376
1547.18926,0.00372
1545.12909,0.00370
1543.06892,0.00349
1541.00874,0.00318
1538.94857,0.00314
1536.88840,0.00324
1534.82823,0.00327
1532.76805,0.00317
1530.70788,0.00299
1528.64771,0.00276
1526.58754,0.00247
1524.52737,0.00208
1522.46719,0.00179
1520.40702,0.00178
1518.34685,0.00190
1516.28668,0.00185
1514.22651,0.00170
1512.16633,0.00165
1510.10616,0.00153
1508.04599,0.00129
1505.98582,0.00132
1503.92565,0.00149
1501.86547,0.00149
1499.80530,0.00143
1497.74513,0.00131
1495.68496,0.00110
1493.62478,0.00100
1491.56461,0.00117
1489.50444,0.00149
1487.44427,0.00159
1485.38410,0.00140
1483.32392,0.00126
1481.26375,0.00128
1479.20358,0.00128
1477.14341,0.00112
1475.08324,0.00100
1473.02306,0.00116
1470.96289,0.00133
1468.90272,0.00135
1466.84255,0.00129
1464.78238,0.00121
1462.72220,0.00119
1460.66203,0.00132
1458.60186,0.00160
1456.54169,0.00194
1454.48151,0.00204
1452.42134,0.00196
1450.36117,0.00196
1448.30100,0.00204
1446.24083,0.00195
1444.18065,0.00167
1442.12048,0.00138
1440.06031,0.00128
1438.00014,0.00132
1435.93997,0.00122
1433.87979,0.00097
1431.81962,0.00081
1429.75945,0.00085
1427.69928,0.00095
1425.63910,0.00103
1423.57893,0.00116
1421.51876,0.00132
1419.45859,0.00149
1417.39842,0.00165
1415.33824,0.00164
1413.27807,0.00148
1411.21790,0.00135
1409.15773,0.00130
1407.09756,0.00124
1405.03738,0.00112
1402.97721,0.00099
1400.91704,0.00094
1398.85687,0.00108
1396.79670,0.00134
1394.73652,0.00142
1392.67635,0.00128
1390.61618,0.00113
1388.55601,0.00110
1386.49583,0.00109
1384.43566,0.00112
1382.37549,0.00127
1380.31532,0.00151
1378.25515,0.00168
1376.19497,0.00176
1374.13480,0.00183
1372.07463,0.00194
1370.01446,0.00203
1367.95429,0.00201
1365.89411,0.00182
1363.83394,0.00157
1361.77377,0.00141
1359.71360,0.00139
1357.65343,0.00147
1355.59325,0.00153
1353.53308,0.00150
1351.47291,0.00149
1349.41274,0.00154
1347.35256,0.00150
1345.29239,0.00140
1343.23222,0.00144
1341.17205,0.00165
1339.11188,0.00187
1337.05170,0.00197
1334.99153,0.00200
1332.93136,0.00200
1330.87119,0.00192
1328.81102,0.00171
1326.75084,0.00153
1324.69067,0.00150
1322.63050,0.00148
1320.57033,0.00148
1318.51015,0.00158
1316.44998,0.00164
1314.38981,0.00159
1312.32964,0.00155
1310.26947,0.00155
1308.20929,0.00158
1306.14912,0.00165
1304.08895,0.00166
1302.02878,0.00161
1299.96861,0.00158
1297.90843,0.00158
1295.84826,0.00154
1293.78809,0.00162
1291.72792,0.00183
1289.66775,0.00203
1287.60757,0.00210
1285.54740,0.00207
1283.48723,0.00202
1281.42706,0.00193
1279.36688,0.00182
1277.30671,0.00176
1275.24654,0.00172
1273.18637,0.00171
1271.12620,0.00185
1269.06602,0.00210
1267.00585,0.00221
1264.94568,0.00201
1262.88551,0.00179
1260.82534,0.00179
1258.76516,0.00189
1256.70499,0.00196
1254.64482,0.00190
1252.58465,0.00173
1250.52447,0.00154
1248.46430,0.00131
1246.40413,0.00119
1244.34396,0.00134
1242.28379,0.00149
1240.22361,0.00138
1238.16344,0.00116
1236.10327,0.00108
1234.04310,0.00110
1231.98293,0.00106
1229.92275,0.00103
1227.86258,0.00100
1225.80241,0.00088
1223.74224,0.00079
1221.68207,0.00074
1219.62189,0.00066
1217.56172,0.00057
1215.50155,0.00043
1213.44138,0.00030
1211.38120,0.00017
1209.32103,0.00000
1207.26086,0.00004
1205.20069,0.00034
1203.14052,0.00056
1201.08034,0.00058
1199.02017,0.00060
1196.96000,0.00081
1194.89983,0.00118
1192.83966,0.00162
1190.77948,0.00198
1188.71931,0.00237
1186.65914,0.00293
1184.59897,0.00349
1182.53880,0.00391
1180.47862,0.00431
1178.41845,0.00487
1176.35828,0.00562
1174.29811,0.00641
1172.23793,0.00720
1170.17776,0.00812
1168.11759,0.00900
1166.05742,0.00956
1163.99725,0.01002
1161.93707,0.01057
1159.87690,0.01117
1157.81673,0.01201
1155.75656,0.01297
1153.69639,0.01365
1151.63621,0.01429
1149.57604,0.01517
1147.51587,0.01598
1145.45570,0.01664
1143.39552,0.01749
1141.33535,0.01853
1139.27518,0.01944
1137.21501,0.02024
1135.15484,0.02113
1133.09466,0.02210
1131.03449,0.02310
1128.97432,0.02403
1126.91415,0.02492
1124.85398,0.02595
1122.79380,0.02699
1120.73363,0.02788
1118.67346,0.02872
1116.61329,0.02963
1114.55312,0.03055
1112.49294,0.03141
1110.43277,0.03232
1108.37260,0.03329
1106.31243,0.03437
1104.25225,0.03561
1102.19208,0.03674
1100.13191,0.03753
1098.07174,0.03837
1096.01157,0.03942
1093.95139,0.04034
1091.89122,0.04107
1089.83105,0.04188
1087.77088,0.04281
1085.71071,0.04359
1083.65053,0.04412
1081.59036,0.04461
1079.53019,0.04515
1077.47002,0.04582
1075.40985,0.04666
1073.34967,0.04743
1071.28950,0.04788
1069.22933,0.04785
1067.16916,0.04767
1065.10898,0.04778
1063.04881,0.04785
1060.98864,0.04769
1058.92847,0.04754
1056.86830,0.04732
1054.80812,0.04680
1052.74795,0.04614
1050.68778,0.04548
1048.62761,0.04473
1046.56744,0.04391
1044.50726,0.04302
1042.44709,0.04199
1040.38692,0.04098
1038.32675,0.04005
1036.26657,0.03907
1034.20640,0.03805
1032.14623,0.03710
1030.08606,0.03620
1028.02589,0.03530
1025.96571,0.03441
1023.90554,0.03348
1021.84537,0.03268
1019.78520,0.03194
1017.72503,0.03113
1015.66485,0.03032
1013.60468,0.02969
1011.54451,0.02943
1009.48434,0.02931
1007.42417,0.02908
1005.36399,0.02904
1003.30382,0.02922
1001.24365,0.02944
999.18348,0.02978
997.12330,0.03028
995.06313,0.03099
993.00296,0.03170
990.94279,0.03228
988.88262,0.03267
986.82244,0.03304
984.76227,0.03363
982.70210,0.03424
980.64193,0.03436
978.58176,0.03373
976.52158,0.03281
974.46141,0.03196
972.40124,0.03109
970.34107,0.03030
968.28089,0.02939
966.22072,0.02820
964.16055,0.02699
962.10038,0.02595
960.04021,0.02508
957.98003,0.02437
955.91986,0.02352
953.85969,0.02254
951.79952,0.02188
949.73935,0.02162
947.67917,0.02146
945.61900,0.02125
943.55883,0.02111
941.49866,0.02106
939.43849,0.02093
937.37831,0.02065
935.31814,0.02035
933.25797,0.02019
931.19780,0.02037
929.13762,0.02081
927.07745,0.02092
925.01728,0.02055
922.95711,0.02006
920.89694,0.01970
918.83676,0.01933
916.77659,0.01880
914.71642,0.01813
912.65625,0.01735
910.59608,0.01667
908.53590,0.01651
906.47573,0.01662
904.41556,0.01639
902.35539,0.01604
900.29522,0.01595
898.23504,0.01594
896.17487,0.01600
894.11470,0.01612
892.05453,0.01619
889.99435,0.01626
887.93418,0.01639
885.87401,0.01653
883.81384,0.01661
881.75367,0.01697
879.69349,0.01777
877.63332,0.01859
875.57315,0.01901
873.51298,0.01891
871.45281,0.01852
869.39263,0.01849
867.33246,0.01915
865.27229,0.01962
863.21212,0.01936
861.15194,0.01915
859.09177,0.01928
857.03160,0.01925
854.97143,0.01893
852.91126,0.01855
850.85108,0.01813
848.79091,0.01773
846.73074,0.01726
844.67057,0.01643
842.61040,0.01552
840.55022,0.01477
838.49005,0.01420
836.42988,0.01395
834.36971,0.01373
832.30954,0.01298
830.24936,0.01179
828.18919,0.01110
826.12902,0.01083
824.06885,0.01035
822.00867,0.01012
819.94850,0.01003
817.88833,0.00955
815.82816,0.00898
813.76799,0.00854
811.70781,0.00826
809.64764,0.00800
807.58747,0.00753
805.52730,0.00714
803.46713,0.00696
801.40695,0.00678
799.34678,0.00648
797.28661,0.00622
795.22644,0.00633
793.16627,0.00666
791.10609,0.00667
789.04592,0.00657
786.98575,0.00666
784.92558,0.00623
782.86540,0.00551
780.80523,0.00532
778.74506,0.00491
776.68489,0.00406
774.62472,0.00374
772.56454,0.00413
770.50437,0.00469
768.44420,0.00514
766.38403,0.00515
764.32386,0.00459
762.26368,0.00429
760.20351,0.00441
758.14334,0.00417
756.08317,0.00368
754.02299,0.00319
751.96282,0.00286
749.90265,0.00285
747.84248,0.00271
745.78231,0.00248
743.72213,0.00256
741.66196,0.00229
739.60179,0.00144
737.54162,0.00084
735.48145,0.00087
733.42127,0.00148
731.36110,0.00222
729.30093,0.00245
727.24076,0.00247
725.18059,0.00272
723.12041,0.00270
721.06024,0.00217
719.00007,0.00171
716.93990,0.00173
714.87972,0.00225
712.81955,0.00272
710.75938,0.00253
708.69921,0.00187
706.63904,0.00128
704.57886,0.00117
702.51869,0.00164
700.45852,0.00230
698.39835,0.00235
696.33818,0.00153
694.27800,0.00093
692.21783,0.00144
690.15766,0.00229
688.09749,0.00232
686.03731,0.00151
683.97714,0.00056
681.91697,0.00000
679.85680,0.00017
677.79663,0.00097
675.73645,0.00157
673.67628,0.00153
671.61611,0.00121
669.55594,0.00071
667.49577,0.00008
665.43559,0.00008
663.37542,0.00104
661.31525,0.00175
659.25508,0.00132
657.19491,0.00033
655.13473,0.00002
653.07456,0.00081
651.01439,0.00162
648.95422,0.00158
646.89404,0.00101
644.83387,0.00031
642.77370,0.00000
640.71353,0.00067
638.65336,0.00203
636.59318,0.00245
634.53301,0.00115
632.47284,0.00006
630.41267,0.00028
628.35250,0.00045
626.29232,0.00003
624.23215,0.00064
622.17198,0.00241
620.11181,0.00308
618.05164,0.00062
615.99146,-0.00124
613.93129,0.00044
611.87112,0.00198
609.81095,0.00176
607.75077,0.00117
605.69060,0.00005
603.63043,-0.00128
601.57026,-0.00136
599.51009,0.00000
