3996.73391,0.00050
3994.67373,0.00031
3992.61356,0.00031
3990.55339,0.00036
3988.49322,0.00047
3986.43305,0.00065
3984.37287,0.00069
3982.31270,0.00051
3980.25253,0.00037
3978.19236,0.00039
3976.13219,0.00049
3974.07201,0.00052
3972.01184,0.00043
3969.95167,0.00028
3967.89150,0.00030
3965.83133,0.00044
3963.77115,0.00046
3961.71098,0.00039
3959.65081,0.00028
3957.59064,0.00010
3955.53046,0.00000
3953.47029,0.00014
3951.41012,0.00039
3949.34995,0.00048
3947.28978,0.00044
3945.22960,0.00051
3943.16943,0.00065
3941.10926,0.00072
3939.04909,0.00077
3936.98892,0.00081
3934.92874,0.00069
3932.86857,0.00039
3930.80840,0.00016
3928.74823,0.00006
3926.68805,0.00003
3924.62788,0.00010
3922.56771,0.00025
3920.50754,0.00040
3918.44737,0.00050
3916.38719,0.00056
3914.32702,0.00058
3912.26685,0.00047
3910.20668,0.00022
3908.14651,0.00004
3906.08633,0.00006
3904.02616,0.00016
3901.96599,0.00019
3899.90582,0.00018
3897.84565,0.00020
3895.78547,0.00028
3893.72530,0.00044
3891.66513,0.00053
3889.60496,0.00050
3887.54478,0.00041
3885.48461,0.00029
3883.42444,0.00024
3881.36427,0.00039
3879.30410,0.00054
3877.24392,0.00065
3875.18375,0.00080
3873.12358,0.00094
3871.06341,0.00097
3869.00324,0.00069
3866.94306,0.00024
3864.88289,0.00006
3862.82272,0.00021
3860.76255,0.00039
3858.70237,0.00056
3856.64220,0.00083
3854.58203,0.00114
3852.52186,0.00123
3850.46169,0.00099
3848.40151,0.00082
3846.34134,0.00099
3844.28117,0.00130
3842.22100,0.00149
3840.16083,0.00160
3838.10065,0.00159
3836.04048,0.00133
3833.98031,0.00098
3831.92014,0.00079
3829.85997,0.00072
3827.79979,0.00062
3825.73962,0.00054
3823.67945,0.00063
3821.61928,0.00073
3819.55910,0.00079
3817.49893,0.00085
3815.43876,0.00094
3813.37859,0.00115
3811.31842,0.00152
3809.25824,0.00189
3807.19807,0.00198
3805.13790,0.00174
3803.07773,0.00140
3801.01756,0.00110
3798.95738,0.00092
3796.89721,0.00065
3794.83704,0.00033
3792.77687,0.00031
3790.71670,0.00051
3788.65652,0.00056
3786.59635,0.00052
3784.53618,0.00072
3782.47601,0.00108
3780.41583,0.00127
3778.35566,0.00129
3776.29549,0.00128
3774.23532,0.00124
3772.17515,0.00121
3770.11497,0.00133
3768.05480,0.00154
3765.99463,0.00167
3763.93446,0.00173
3761.87429,0.00172
3759.81411,0.00145
3757.75394,0.00113
3755.69377,0.00122
3753.63360,0.00136
3751.57342,0.00078
3749.51325,0.00000
3747.45308,0.00028
3745.39291,0.00118
3743.33274,0.00150
3741.27256,0.00127
3739.21239,0.00100
3737.15222,0.00073
3735.09205,0.00042
3733.03188,0.00033
3730.97170,0.00061
3728.91153,0.00137
3726.85136,0.00221
3724.79119,0.00254
3722.73102,0.00242
3720.67084,0.00216
3718.61067,0.00205
3716.55050,0.00167
3714.49033,0.00096
3712.43015,0.00049
3710.36998,0.00036
3708.30981,0.00064
3706.24964,0.00099
3704.18947,0.00117
3702.12929,0.00103
3700.06912,0.00096
3698.00895,0.00128
3695.94878,0.00152
3693.88861,0.00145
3691.82843,0.00119
3689.76826,0.00106
3687.70809,0.00124
3685.64792,0.00176
3683.58775,0.00229
3681.52757,0.00263
3679.46740,0.00261
3677.40723,0.00230
3675.34706,0.00195
3673.28688,0.00195
3671.22671,0.00203
3669.16654,0.00210
3667.10637,0.00241
3665.04620,0.00276
3662.98602,0.00300
3660.92585,0.00312
3658.86568,0.00301
3656.80551,0.00299
3654.74534,0.00332
3652.68516,0.00348
3650.62499,0.00337
3648.56482,0.00366
3646.50465,0.00438
3644.44447,0.00498
3642.38430,0.00538
3640.32413,0.00569
3638.26396,0.00590
3636.20379,0.00609
3634.14361,0.00641
3632.08344,0.00683
3630.02327,0.00724
3627.96310,0.00742
3625.90293,0.00748
3623.84275,0.00755
3621.78258,0.00769
3619.72241,0.00767
3617.66224,0.00747
3615.60207,0.00766
3613.54189,0.00836
3611.48172,0.00939
3609.42155,0.01009
3607.36138,0.01046
3605.30120,0.01104
3603.24103,0.01151
3601.18086,0.01153
3599.12069,0.01145
3597.06052,0.01183
3595.00034,0.01236
3592.94017,0.01275
3590.88000,0.01296
3588.81983,0.01315
3586.75966,0.01338
3584.69948,0.01392
3582.63931,0.01461
3580.57914,0.01503
3578.51897,0.01529
3576.45879,0.01561
3574.39862,0.01581
3572.33845,0.01589
3570.27828,0.01609
3568.21811,0.01637
3566.15793,0.01658
3564.09776,0.01698
3562.03759,0.01759
3559.97742,0.01821
3557.91725,0.01871
3555.85707,0.01916
3553.79690,0.01951
3551.73673,0.01974
3549.67656,0.02002
3547.61639,0.02021
3545.55621,0.02020
3543.49604,0.02041
3541.43587,0.02106
3539.37570,0.02174
3537.31552,0.02212
3535.25535,0.02238
3533.19518,0.02261
3531.13501,0.02269
3529.07484,0.02291
3527.01466,0.02348
3524.95449,0.02403
3522.89432,0.02412
3520.83415,0.02404
3518.77398,0.02439
3516.71380,0.02509
3514.65363,0.02577
3512.59346,0.02631
3510.53329,0.02656
3508.47312,0.02659
3506.41294,0.02675
3504.35277,0.02706
3502.29260,0.02724
3500.23243,0.02737
3498.17225,0.02766
3496.11208,0.02808
3494.05191,0.02853
3491.99174,0.02889
3489.93157,0.02916
3487.87139,0.02952
3485.81122,0.02982
3483.75105,0.02991
3481.69088,0.02994
3479.63071,0.03009
3477.57053,0.03047
3475.51036,0.03100
3473.45019,0.03149
3471.39002,0.03171
3469.32984,0.03171
3467.26967,0.03186
3465.20950,0.03223
3463.14933,0.03257
3461.08916,0.03267
3459.02898,0.03265
3456.96881,0.03271
3454.90864,0.03296
3452.84847,0.03351
3450.78830,0.03423
3448.72812,0.03470
3446.66795,0.03488
3444.60778,0.03491
3442.54761,0.03486
3440.48744,0.03497
3438.42726,0.03523
3436.36709,0.03542
3434.30692,0.03554
3432.24675,0.03558
3430.18657,0.03559
3428.12640,0.03573
3426.06623,0.03613
3424.00606,0.03670
3421.94589,0.03712
3419.88571,0.03707
3417.82554,0.03687
3415.76537,0.03702
3413.70520,0.03735
3411.64503,0.03755
3409.58485,0.03776
3407.52468,0.03804
3405.46451,0.03831
3403.40434,0.03844
3401.34416,0.03856
3399.28399,0.03886
3397.22382,0.03907
3395.16365,0.03890
3393.10348,0.03860
3391.04330,0.03873
3388.98313,0.03918
3386.92296,0.03948
3384.86279,0.03957
3382.80262,0.03964
3380.74244,0.03981
3378.68227,0.03999
3376.62210,0.04002
3374.56193,0.03993
3372.50176,0.04006
3370.44158,0.04060
3368.38141,0.04117
3366.32124,0.04124
3364.26107,0.04089
3362.20089,0.04057
3360.14072,0.04044
3358.08055,0.04048
3356.02038,0.04064
3353.96021,0.04088
3351.90003,0.04110
3349.83986,0.04114
3347.77969,0.04107
3345.71952,0.04106
3343.65935,0.04128
3341.59917,0.04162
3339.53900,0.04183
3337.47883,0.04187
3335.41866,0.04182
3333.35849,0.04180
3331.29831,0.04182
3329.23814,0.04184
3327.17797,0.04176
3325.11780,0.04155
3323.05762,0.04144
3320.99745,0.04150
3318.93728,0.04170
3316.87711,0.04205
3314.81694,0.04230
3312.75676,0.04215
3310.69659,0.04195
3308.63642,0.04205
3306.57625,0.04221
3304.51608,0.04218
3302.45590,0.04202
3300.39573,0.04197
3298.33556,0.04216
3296.27539,0.04237
3294.21521,0.04245
3292.15504,0.04247
3290.09487,0.04251
3288.03470,0.04262
3285.97453,0.04272
3283.91435,0.04272
3281.85418,0.04262
3279.79401,0.04239
3277.73384,0.04232
3275.67367,0.04260
3273.61349,0.04279
3271.55332,0.04267
3269.49315,0.04263
3267.43298,0.04272
3265.37281,0.04277
3263.31263,0.04277
3261.25246,0.04261
3259.19229,0.04247
3257.13212,0.04251
3255.07194,0.04252
3253.01177,0.04245
3250.95160,0.04255
3248.89143,0.04280
3246.83126,0.04290
3244.77108,0.04282
3242.71091,0.04285
3240.65074,0.04296
3238.59057,0.04295
3236.53040,0.04272
3234.47022,0.04239
3232.41005,0.04215
3230.34988,0.04202
3228.28971,0.04197
3226.22954,0.04207
3224.16936,0.04226
3222.10919,0.04219
3220.04902,0.04181
3217.98885,0.04156
3215.92867,0.04156
3213.86850,0.04159
3211.80833,0.04175
3209.74816,0.04198
3207.68799,0.04192
3205.62781,0.04163
3203.56764,0.04138
3201.50747,0.04127
3199.44730,0.04137
3197.38713,0.04153
3195.32695,0.04140
3193.26678,0.04121
3191.20661,0.04119
3189.14644,0.04107
3187.08626,0.04083
3185.02609,0.04056
3182.96592,0.04030
3180.90575,0.04004
3178.84558,0.03978
3176.78540,0.03976
3174.72523,0.04003
3172.66506,0.04007
3170.60489,0.03982
3168.54472,0.03977
3166.48454,0.03980
3164.42437,0.03968
3162.36420,0.03953
3160.30403,0.03930
3158.24386,0.03895
3156.18368,0.03882
3154.12351,0.03889
3152.06334,0.03884
3150.00317,0.03862
3147.94299,0.03847
3145.88282,0.03841
3143.82265,0.03824
3141.76248,0.03794
3139.70231,0.03768
3137.64213,0.03749
3135.58196,0.03725
3133.52179,0.03693
3131.46162,0.03665
3129.40145,0.03653
3127.34127,0.03649
3125.28110,0.03642
3123.22093,0.03633
3121.16076,0.03630
3119.10058,0.03626
3117.04041,0.03611
3114.98024,0.03595
3112.92007,0.03586
3110.85990,0.03567
3108.79972,0.03539
3106.73955,0.03523
3104.67938,0.03510
3102.61921,0.03484
3100.55904,0.03455
3098.49886,0.03439
3096.43869,0.03433
3094.37852,0.03431
3092.31835,0.03430
3090.25818,0.03417
3088.19800,0.03386
3086.13783,0.03353
3084.07766,0.03337
3082.01749,0.03330
3079.95731,0.03318
3077.89714,0.03310
3075.83697,0.03306
3073.77680,0.03294
3071.71663,0.03276
3069.65645,0.03254
3067.59628,0.03231
3065.53611,0.03204
3063.47594,0.03170
3061.41577,0.03141
3059.35559,0.03124
3057.29542,0.03107
3055.23525,0.03084
3053.17508,0.03067
3051.11491,0.03056
3049.05473,0.03035
3046.99456,0.03009
3044.93439,0.02991
3042.87422,0.02973
3040.81404,0.02945
3038.75387,0.02917
3036.69370,0.02895
3034.63353,0.02881
3032.57336,0.02888
3030.51318,0.02905
3028.45301,0.02898
3026.39284,0.02867
3024.33267,0.02832
3022.27250,0.02806
3020.21232,0.02799
3018.15215,0.02806
3016.09198,0.02800
3014.03181,0.02775
3011.97163,0.02750
3009.91146,0.02725
3007.85129,0.02698
3005.79112,0.02673
3003.73095,0.02650
3001.67077,0.02634
2999.61060,0.02621
2997.55043,0.02612
2995.49026,0.02612
2993.43009,0.02611
2991.36991,0.02594
2989.30974,0.02563
2987.24957,0.02545
2985.18940,0.02550
2983.12923,0.02545
2981.06905,0.02533
2979.00888,0.02537
2976.94871,0.02548
2974.88854,0.02537
2972.82836,0.02511
2970.76819,0.02506
2968.70802,0.02516
2966.64785,0.02520
2964.58768,0.02514
2962.52750,0.02517
2960.46733,0.02532
2958.40716,0.02519
2956.34699,0.02489
2954.28682,0.02482
2952.22664,0.02475
2950.16647,0.02466
2948.10630,0.02486
2946.04613,0.02522
2943.98596,0.02541
2941.92578,0.02543
2939.86561,0.02529
2937.80544,0.02513
2935.74527,0.02514
2933.68509,0.02512
2931.62492,0.02495
2929.56475,0.02491
2927.50458,0.02504
2925.44441,0.02508
2923.38423,0.02494
2921.32406,0.02475
2919.26389,0.02466
2917.20372,0.02465
2915.14355,0.02451
2913.08337,0.02418
2911.02320,0.02380
2908.96303,0.02349
2906.90286,0.02328
2904.84268,0.02315
2902.78251,0.02309
2900.72234,0.02311
2898.66217,0.02314
2896.60200,0.02321
2894.54182,0.02331
2892.48165,0.02330
2890.42148,0.02303
2888.36131,0.02269
2886.30114,0.02260
2884.24096,0.02269
2882.18079,0.02275
2880.12062,0.02269
2878.06045,0.02261
2876.00028,0.02262
2873.94010,0.02258
2871.87993,0.02242
2869.81976,0.02222
2867.75959,0.02197
2865.69941,0.02168
2863.63924,0.02144
2861.57907,0.02130
2859.51890,0.02127
2857.45873,0.02122
2855.39855,0.02113
2853.33838,0.02105
2851.27821,0.02094
2849.21804,0.02089
2847.15787,0.02086
2845.09769,0.02069
2843.03752,0.02051
2840.97735,0.02047
2838.91718,0.02040
2836.85700,0.02019
2834.79683,0.01988
2832.73666,0.01961
2830.67649,0.01955
2828.61632,0.01954
2826.55614,0.01939
2824.49597,0.01916
2822.43580,0.01893
2820.37563,0.01878
2818.31546,0.01875
2816.25528,0.01878
2814.19511,0.01883
2812.13494,0.01884
2810.07477,0.01875
2808.01460,0.01864
2805.95442,0.01850
2803.89425,0.01834
2801.83408,0.01822
2799.77391,0.01819
2797.71373,0.01824
2795.65356,0.01826
2793.59339,0.01809
2791.53322,0.01785
2789.47305,0.01775
2787.41287,0.01766
2785.35270,0.01751
2783.29253,0.01742
2781.23236,0.01758
2779.17219,0.01772
2777.11201,0.01758
2775.05184,0.01731
2772.99167,0.01705
2770.93150,0.01686
2768.87133,0.01682
2766.81115,0.01686
2764.75098,0.01683
2762.69081,0.01669
2760.63064,0.01658
2758.57046,0.01648
2756.51029,0.01640
2754.45012,0.01635
2752.38995,0.01627
2750.32978,0.01621
2748.26960,0.01619
2746.20943,0.01609
2744.14926,0.01594
2742.08909,0.01579
2740.02892,0.01575
2737.96874,0.01579
2735.90857,0.01571
2733.84840,0.01548
2731.78823,0.01536
2729.72805,0.01532
2727.66788,0.01520
2725.60771,0.01515
2723.54754,0.01533
2721.48737,0.01548
2719.42719,0.01530
2717.36702,0.01495
2715.30685,0.01471
2713.24668,0.01463
2711.18651,0.01462
2709.12633,0.01460
2707.06616,0.01449
2705.00599,0.01443
2702.94582,0.01446
2700.88565,0.01439
2698.82547,0.01424
2696.76530,0.01417
2694.70513,0.01411
2692.64496,0.01400
2690.58478,0.01389
2688.52461,0.01385
2686.46444,0.01386
2684.40427,0.01391
2682.34410,0.01393
2680.28392,0.01378
2678.22375,0.01352
2676.16358,0.01334
2674.10341,0.01326
2672.04324,0.01321
2669.98306,0.01302
2667.92289,0.01274
2665.86272,0.01261
2663.80255,0.01267
2661.74238,0.01281
2659.68220,0.01287
2657.62203,0.01273
2655.56186,0.01258
2653.50169,0.01255
2651.44151,0.01249
2649.38134,0.01239
2647.32117,0.01225
2645.26100,0.01200
2643.20083,0.01173
2641.14065,0.01168
2639.08048,0.01171
2637.02031,0.01158
2634.96014,0.01148
2632.89997,0.01156
2630.83979,0.01169
2628.77962,0.01167
2626.71945,0.01143
2624.65928,0.01100
2622.59910,0.01067
2620.53893,0.01054
2618.47876,0.01061
2616.41859,0.01085
2614.35842,0.01084
2612.29824,0.01052
2610.23807,0.01041
2608.17790,0.01028
2606.11773,0.00995
2604.05756,0.00987
2601.99738,0.01010
2599.93721,0.01008
2597.87704,0.00974
2595.81687,0.00959
2593.75670,0.00969
2591.69652,0.00988
2589.63635,0.01000
2587.57618,0.00997
2585.51601,0.01013
2583.45583,0.01024
2581.39566,0.00972
2579.33549,0.00909
2577.27532,0.00896
2575.21515,0.00900
2573.15497,0.00915
2571.09480,0.00955
2569.03463,0.00982
2566.97446,0.00966
2564.91429,0.00915
2562.85411,0.00862
2560.79394,0.00846
2558.73377,0.00866
2556.67360,0.00886
2554.61342,0.00899
2552.55325,0.00912
2550.49308,0.00922
2548.43291,0.00939
2546.37274,0.00939
2544.31256,0.00912
2542.25239,0.00896
2540.19222,0.00900
2538.13205,0.00903
2536.07188,0.00899
2534.01170,0.00906
2531.95153,0.00925
2529.89136,0.00935
2527.83119,0.00945
2525.77102,0.00938
2523.71084,0.00907
2521.65067,0.00897
2519.59050,0.00895
2517.53033,0.00867
2515.47015,0.00844
2513.40998,0.00861
2511.34981,0.00896
2509.28964,0.00901
2507.22947,0.00887
2505.16929,0.00893
2503.10912,0.00903
2501.04895,0.00891
2498.98878,0.00877
2496.92861,0.00882
2494.86843,0.00891
2492.80826,0.00894
2490.74809,0.00897
2488.68792,0.00913
2486.62775,0.00927
2484.56757,0.00919
2482.50740,0.00924
2480.44723,0.00952
2478.38706,0.00965
2476.32688,0.00969
2474.26671,0.00958
2472.20654,0.00930
2470.14637,0.00921
2468.08620,0.00932
2466.02602,0.00945
2463.96585,0.00950
2461.90568,0.00939
2459.84551,0.00922
2457.78534,0.00920
2455.72516,0.00945
2453.66499,0.00978
2451.60482,0.00987
2449.54465,0.00968
2447.48447,0.00957
2445.42430,0.00961
2443.36413,0.00945
2441.30396,0.00913
2439.24379,0.00901
2437.18361,0.00922
2435.12344,0.00953
2433.06327,0.00963
2431.00310,0.00956
2428.94293,0.00945
2426.88275,0.00938
2424.82258,0.00946
2422.76241,0.00949
2420.70224,0.00939
2418.64207,0.00933
2416.58189,0.00938
2414.52172,0.00939
2412.46155,0.00925
2410.40138,0.00923
2408.34120,0.00939
2406.28103,0.00945
2404.22086,0.00928
2402.16069,0.00911
2400.10052,0.00901
2398.04034,0.00885
2395.98017,0.00868
2393.92000,0.00857
2391.85983,0.00853
2389.79966,0.00848
2387.73948,0.00842
2385.67931,0.00829
2383.61914,0.00832
2381.55897,0.00867
2379.49880,0.00890
2377.43862,0.00871
2375.37845,0.00910
2373.31828,0.00929
2371.25811,0.00902
2369.19793,0.00881
2367.13776,0.00708
2365.07759,0.00508
2363.01742,0.00685
2360.95725,0.00526
2358.89707,0.00414
2356.83690,0.00553
2354.77673,0.00791
2352.71656,0.00890
2350.65639,0.00434
2348.59621,0.00202
2346.53604,0.01031
2344.47587,0.01171
2342.41570,0.00976
2340.35552,0.00894
2338.29535,0.00866
2336.23518,0.00860
2334.17501,0.00774
2332.11484,0.00736
2330.05466,0.00705
2327.99449,0.00784
2325.93432,0.00733
2323.87415,0.00785
2321.81398,0.00795
2319.75380,0.00858
2317.69363,0.00775
2315.63346,0.00792
2313.57329,0.00866
2311.51312,0.00836
2309.45294,0.00759
2307.39277,0.00742
2305.33260,0.00804
2303.27243,0.00854
2301.21225,0.00878
2299.15208,0.00833
2297.09191,0.00794
2295.03174,0.00803
2292.97157,0.00798
2290.91139,0.00782
2288.85122,0.00789
2286.79105,0.00799
2284.73088,0.00785
2282.67071,0.00768
2280.61053,0.00767
2278.55036,0.00771
2276.49019,0.00765
2274.43002,0.00742
2272.36984,0.00739
2270.30967,0.00764
2268.24950,0.00786
2266.18933,0.00785
2264.12916,0.00763
2262.06898,0.00736
2260.00881,0.00745
2257.94864,0.00754
2255.88847,0.00726
2253.82830,0.00682
2251.76812,0.00657
2249.70795,0.00649
2247.64778,0.00645
2245.58761,0.00638
2243.52744,0.00641
2241.46726,0.00689
2239.40709,0.00715
2237.34692,0.00679
2235.28675,0.00670
2233.22657,0.00699
2231.16640,0.00703
2229.10623,0.00684
2227.04606,0.00642
2224.98589,0.00595
2222.92571,0.00548
2220.86554,0.00501
2218.80537,0.00511
2216.74520,0.00555
2214.68503,0.00579
2212.62485,0.00612
2210.56468,0.00645
2208.50451,0.00607
2206.44434,0.00538
2204.38417,0.00560
2202.32399,0.00624
2200.26382,0.00590
2198.20365,0.00556
2196.14348,0.00596
2194.08330,0.00614
2192.02313,0.00610
2189.96296,0.00600
2187.90279,0.00560
2185.84262,0.00523
2183.78244,0.00466
2181.72227,0.00375
2179.66210,0.00374
2177.60193,0.00448
2175.54176,0.00445
2173.48158,0.00416
2171.42141,0.00448
2169.36124,0.00481
2167.30107,0.00516
2165.24089,0.00551
2163.18072,0.00454
2161.12055,0.00282
2159.06038,0.00267
2157.00021,0.00317
2154.94003,0.00251
2152.87986,0.00190
2150.81969,0.00221
2148.75952,0.00293
2146.69935,0.00379
2144.63917,0.00500
2142.57900,0.00568
2140.51883,0.00514
2138.45866,0.00413
2136.39849,0.00329
2134.33831,0.00320
2132.27814,0.00360
2130.21797,0.00372
2128.15780,0.00374
2126.09762,0.00389
2124.03745,0.00405
2121.97728,0.00413
2119.91711,0.00419
2117.85694,0.00448
2115.79676,0.00476
2113.73659,0.00470
2111.67642,0.00475
2109.61625,0.00507
2107.55608,0.00534
2105.49590,0.00543
2103.43573,0.00497
2101.37556,0.00427
2099.31539,0.00375
2097.25521,0.00359
2095.19504,0.00396
2093.13487,0.00423
2091.07470,0.00392
2089.01453,0.00391
2086.95435,0.00434
2084.89418,0.00423
2082.83401,0.00396
2080.77384,0.00416
2078.71367,0.00397
2076.65349,0.00316
2074.59332,0.00282
2072.53315,0.00337
2070.47298,0.00421
2068.41281,0.00458
2066.35263,0.00428
2064.29246,0.00373
2062.23229,0.00338
2060.17212,0.00354
2058.11194,0.00367
2056.05177,0.00311
2053.99160,0.00279
2051.93143,0.00335
2049.87126,0.00391
2047.81108,0.00414
2045.75091,0.00438
2043.69074,0.00419
2041.63057,0.00312
2039.57040,0.00225
2037.51022,0.00249
2035.45005,0.00266
2033.38988,0.00174
2031.32971,0.00098
2029.26954,0.00125
2027.20936,0.00148
2025.14919,0.00139
2023.08902,0.00158
2021.02885,0.00189
2018.96867,0.00237
2016.90850,0.00353
2014.84833,0.00473
2012.78816,0.00514
2010.72799,0.00509
2008.66781,0.00430
2006.60764,0.00269
2004.54747,0.00171
2002.48730,0.00176
2000.42713,0.00197
1998.36695,0.00169
1996.30678,0.00148
1994.24661,0.00226
1992.18644,0.00363
1990.12626,0.00476
1988.06609,0.00507
1986.00592,0.00449
1983.94575,0.00375
1981.88558,0.00300
1979.82540,0.00176
1977.76523,0.00034
1975.70506,0.00000
1973.64489,0.00072
1971.58472,0.00113
1969.52454,0.00123
1967.46437,0.00145
1965.40420,0.00121
1963.34403,0.00078
1961.28386,0.00103
1959.22368,0.00179
1957.16351,0.00255
1955.10334,0.00295
1953.04317,0.00291
1950.98299,0.00284
1948.92282,0.00276
1946.86265,0.00258
1944.80248,0.00250
1942.74231,0.00230
1940.68213,0.00185
1938.62196,0.00138
1936.56179,0.00103
1934.50162,0.00129
1932.44145,0.00242
1930.38127,0.00359
1928.32110,0.00374
1926.26093,0.00309
1924.20076,0.00258
1922.14059,0.00248
1920.08041,0.00253
1918.02024,0.00263
1915.96007,0.00286
1913.89990,0.00308
1911.83972,0.00309
1909.77955,0.00295
1907.71938,0.00275
1905.65921,0.00253
1903.59904,0.00239
1901.53886,0.00252
1899.47869,0.00284
1897.41852,0.00303
1895.35835,0.00284
1893.29818,0.00245
1891.23800,0.00229
1889.17783,0.00244
1887.11766,0.00264
1885.05749,0.00263
1882.99731,0.00235
1880.93714,0.00210
1878.87697,0.00221
1876.81680,0.00250
1874.75663,0.00260
1872.69645,0.00249
1870.63628,0.00227
1868.57611,0.00207
1866.51594,0.00212
1864.45577,0.00237
1862.39559,0.00259
1860.33542,0.00268
1858.27525,0.00263
1856.21508,0.00250
1854.15491,0.00249
1852.09473,0.00267
1850.03456,0.00290
1847.97439,0.00303
1845.91422,0.00298
1843.85404,0.00275
1841.79387,0.00258
1839.73370,0.00265
1837.67353,0.00281
1835.61336,0.00295
1833.55318,0.00299
1831.49301,0.00280
1829.43284,0.00263
1827.37267,0.00276
1825.31250,0.00296
1823.25232,0.00296
1821.19215,0.00284
1819.13198,0.00274
1817.07181,0.00265
1815.01163,0.00254
1812.95146,0.00242
1810.89129,0.00241
1808.83112,0.00261
1806.77095,0.00284
1804.71077,0.00295
1802.65060,0.00293
1800.59043,0.00282
1798.53026,0.00268
1796.47009,0.00250
1794.40991,0.00233
1792.34974,0.00237
1790.28957,0.00273
1788.22940,0.00308
1786.16923,0.00312
1784.10905,0.00302
1782.04888,0.00300
1779.98871,0.00310
1777.92854,0.00325
1775.86836,0.00334
1773.80819,0.00332
1771.74802,0.00327
1769.68785,0.00326
1767.62768,0.00333
1765.56750,0.00355
1763.50733,0.00383
1761.44716,0.00396
1759.38699,0.00392
1757.32682,0.00392
1755.26664,0.00410
1753.20647,0.00446
1751.14630,0.00468
1749.08613,0.00462
1747.02596,0.00464
1744.96578,0.00487
1742.90561,0.00513
1740.84544,0.00525
1738.78527,0.00536
1736.72509,0.00555
1734.66492,0.00566
1732.60475,0.00570
1730.54458,0.00591
1728.48441,0.00626
1726.42423,0.00655
1724.36406,0.00674
1722.30389,0.00687
1720.24372,0.00695
1718.18355,0.00680
1716.12337,0.00657
1714.06320,0.00665
1712.00303,0.00695
1709.94286,0.00713
1707.88268,0.00703
1705.82251,0.00699
1703.76234,0.00735
1701.70217,0.00784
1699.64200,0.00807
1697.58182,0.00822
1695.52165,0.00856
1693.46148,0.00906
1691.40131,0.00952
1689.34114,0.00986
1687.28096,0.01016
1685.22079,0.01042
1683.16062,0.01071
1681.10045,0.01114
1679.04028,0.01166
1676.98010,0.01216
1674.91993,0.01251
1672.85976,0.01273
1670.79959,0.01301
1668.73941,0.01341
1666.67924,0.01391
1664.61907,0.01437
1662.55890,0.01465
1660.49873,0.01494
1658.43855,0.01540
1656.37838,0.01579
1654.31821,0.01576
1652.25804,0.01545
1650.19787,0.01546
1648.13769,0.01567
1646.07752,0.01587
1644.01735,0.01619
1641.95718,0.01646
1639.89701,0.01648
1637.83683,0.01616
1635.77666,0.01571
1633.71649,0.01571
1631.65632,0.01607
1629.59614,0.01629
1627.53597,0.01625
1625.47580,0.01614
1623.41563,0.01610
1621.35546,0.01627
1619.29528,0.01651
1617.23511,0.01636
1615.17494,0.01591
1613.11477,0.01576
1611.05460,0.01582
1608.99442,0.01574
1606.93425,0.01550
1604.87408,0.01526
1602.81391,0.01502
1600.75373,0.01480
1598.69356,0.01459
1596.63339,0.01420
1594.57322,0.01370
1592.51305,0.01330
1590.45287,0.01294
1588.39270,0.01246
1586.33253,0.01194
1584.27236,0.01148
1582.21219,0.01112
1580.15201,0.01085
1578.09184,0.01040
1576.03167,0.00964
1573.97150,0.00906
1571.91133,0.00889
1569.85115,0.00874
1567.79098,0.00846
1565.73081,0.00820
1563.67064,0.00809
1561.61046,0.00802
1559.55029,0.00742
1557.49012,0.00646
1555.42995,0.00622
1553.36978,0.00634
1551.30960,0.00630
1549.24943,0.00613
1547.18926,0.00608
1545.12909,0.00606
1543.06892,0.00579
1541.00874,0.00525
1538.94857,0.00482
1536.88840,0.00480
1534.82823,0.00485
1532.76805,0.00481
1530.70788,0.00483
1528.64771,0.00486
1526.58754,0.00469
1524.52737,0.00433
1522.46719,0.00386
1520.40702,0.00357
1518.34685,0.00351
1516.28668,0.00347
1514.22651,0.00354
1512.16633,0.00365
1510.10616,0.00339
1508.04599,0.00277
1505.98582,0.00253
1503.92565,0.00295
1501.86547,0.00337
1499.80530,0.00348
1497.74513,0.00332
1495.68496,0.00315
1493.62478,0.00317
1491.56461,0.00313
1489.50444,0.00291
1487.44427,0.00290
1485.38410,0.00318
1483.32392,0.00343
1481.26375,0.00351
1479.20358,0.00352
1477.14341,0.00348
1475.08324,0.00342
1473.02306,0.00352
1470.96289,0.00397
1468.90272,0.00445
1466.84255,0.00466
1464.78238,0.00466
1462.72220,0.00478
1460.66203,0.00503
1458.60186,0.00511
1456.54169,0.00510
1454.48151,0.00534
1452.42134,0.00559
1450.36117,0.00562
1448.30100,0.00553
1446.24083,0.00554
1444.18065,0.00567
1442.12048,0.00575
1440.06031,0.00575
1438.00014,0.00573
1435.93997,0.00574
1433.87979,0.00584
1431.81962,0.00601
1429.75945,0.00618
1427.69928,0.00639
1425.63910,0.00664
1423.57893,0.00686
1421.51876,0.00704
1419.45859,0.00711
1417.39842,0.00708
1415.33824,0.00713
1413.27807,0.00720
1411.21790,0.00722
1409.15773,0.00723
1407.09756,0.00717
1405.03738,0.00699
1402.97721,0.00680
1400.91704,0.00659
1398.85687,0.00627
1396.79670,0.00598
1394.73652,0.00592
1392.67635,0.00606
1390.61618,0.00622
1388.55601,0.00626
1386.49583,0.00623
1384.43566,0.00623
1382.37549,0.00628
1380.31532,0.00633
1378.25515,0.00633
1376.19497,0.00624
1374.13480,0.00604
1372.07463,0.00593
1370.01446,0.00601
1367.95429,0.00615
1365.89411,0.00616
1363.83394,0.00598
1361.77377,0.00573
1359.71360,0.00555
1357.65343,0.00542
1355.59325,0.00528
1353.53308,0.00510
1351.47291,0.00493
1349.41274,0.00488
1347.35256,0.00491
1345.29239,0.00486
1343.23222,0.00469
1341.17205,0.00450
1339.11188,0.00441
1337.05170,0.00447
1334.99153,0.00458
1332.93136,0.00462
1330.87119,0.00458
1328.81102,0.00456
1326.75084,0.00461
1324.69067,0.00463
1322.63050,0.00460
1320.57033,0.00460
1318.51015,0.00460
1316.44998,0.00457
1314.38981,0.00449
1312.32964,0.00438
1310.26947,0.00432
1308.20929,0.00436
1306.14912,0.00443
1304.08895,0.00445
1302.02878,0.00443
1299.96861,0.00441
1297.90843,0.00443
1295.84826,0.00453
1293.78809,0.00467
1291.72792,0.00470
1289.66775,0.00460
1287.60757,0.00446
1285.54740,0.00436
1283.48723,0.00442
1281.42706,0.00466
1279.36688,0.00484
1277.30671,0.00488
1275.24654,0.00486
1273.18637,0.00486
1271.12620,0.00486
1269.06602,0.00484
1267.00585,0.00491
1264.94568,0.00506
1262.88551,0.00515
1260.82534,0.00518
1258.76516,0.00523
1256.70499,0.00526
1254.64482,0.00521
1252.58465,0.00514
1250.52447,0.00505
1248.46430,0.00497
1246.40413,0.00487
1244.34396,0.00479
1242.28379,0.00480
1240.22361,0.00479
1238.16344,0.00460
1236.10327,0.00426
1234.04310,0.00397
1231.98293,0.00386
1229.92275,0.00381
1227.86258,0.00365
1225.80241,0.00339
1223.74224,0.00310
1221.68207,0.00288
1219.62189,0.00270
1217.56172,0.00245
1215.50155,0.00222
1213.44138,0.00208
1211.38120,0.00191
1209.32103,0.00175
1207.26086,0.00164
1205.20069,0.00152
1203.14052,0.00140
1201.08034,0.00136
1199.02017,0.00138
1196.96000,0.00139
1194.89983,0.00152
1192.83966,0.00174
1190.77948,0.00200
1188.71931,0.00228
1186.65914,0.00253
1184.59897,0.00285
1182.53880,0.00324
1180.47862,0.00363
1178.41845,0.00424
1176.35828,0.00511
1174.29811,0.00598
1172.23793,0.00676
1170.17776,0.00746
1168.11759,0.00817
1166.05742,0.00890
1163.99725,0.00956
1161.93707,0.01014
1159.87690,0.01078
1157.81673,0.01156
1155.75656,0.01229
1153.69639,0.01287
1151.63621,0.01339
1149.57604,0.01403
1147.51587,0.01477
1145.45570,0.01555
1143.39552,0.01634
1141.33535,0.01708
1139.27518,0.01780
1137.21501,0.01854
1135.15484,0.01936
1133.09466,0.02030
1131.03449,0.02128
1128.97432,0.02216
1126.91415,0.02296
1124.85398,0.02379
1122.79380,0.02461
1120.73363,0.02539
1118.67346,0.02617
1116.61329,0.02701
1114.55312,0.02801
1112.49294,0.02905
1110.43277,0.03014
1108.37260,0.03134
1106.31243,0.03245
1104.25225,0.03344
1102.19208,0.03445
1100.13191,0.03550
1098.07174,0.03655
1096.01157,0.03742
1093.95139,0.03812
1091.89122,0.03898
1089.83105,0.04001
1087.77088,0.04089
1085.71071,0.04170
1083.65053,0.04260
1081.59036,0.04354
1079.53019,0.04448
1077.47002,0.04531
1075.40985,0.04594
1073.34967,0.04628
1071.28950,0.04650
1069.22933,0.04677
1067.16916,0.04699
1065.10898,0.04712
1063.04881,0.04717
1060.98864,0.04725
1058.92847,0.04725
1056.86830,0.04703
1054.80812,0.04674
1052.74795,0.04647
1050.68778,0.04613
1048.62761,0.04568
1046.56744,0.04508
1044.50726,0.04446
1042.44709,0.04382
1040.38692,0.04300
1038.32675,0.04208
1036.26657,0.04131
1034.20640,0.04074
1032.14623,0.04022
1030.08606,0.03955
1028.02589,0.03870
1025.96571,0.03787
1023.90554,0.03715
1021.84537,0.03644
1019.78520,0.03560
1017.72503,0.03479
1015.66485,0.03419
1013.60468,0.03360
1011.54451,0.03292
1009.48434,0.03221
1007.42417,0.03147
1005.36399,0.03091
1003.30382,0.03070
1001.24365,0.03078
999.18348,0.03101
997.12330,0.03130
995.06313,0.03174
993.00296,0.03231
990.94279,0.03276
988.88262,0.03309
986.82244,0.03343
984.76227,0.03364
982.70210,0.03361
980.64193,0.03323
978.58176,0.03244
976.52158,0.03141
974.46141,0.03041
972.40124,0.02945
970.34107,0.02839
968.28089,0.02724
966.22072,0.02605
964.16055,0.02487
962.10038,0.02375
960.04021,0.02268
957.98003,0.02171
955.91986,0.02089
953.85969,0.02013
951.79952,0.01931
949.73935,0.01845
947.67917,0.01776
945.61900,0.01739
943.55883,0.01702
941.49866,0.01657
939.43849,0.01633
937.37831,0.01605
935.31814,0.01559
933.25797,0.01536
931.19780,0.01530
929.13762,0.01508
927.07745,0.01488
925.01728,0.01470
922.95711,0.01451
920.89694,0.01429
918.83676,0.01391
916.77659,0.01339
914.71642,0.01282
912.65625,0.01239
910.59608,0.01214
908.53590,0.01189
906.47573,0.01168
904.41556,0.01160
902.35539,0.01145
900.29522,0.01127
898.23504,0.01136
896.17487,0.01160
894.11470,0.01177
892.05453,0.01194
889.99435,0.01209
887.93418,0.01220
885.87401,0.01243
883.81384,0.01277
881.75367,0.01305
879.69349,0.01338
877.63332,0.01382
875.57315,0.01420
873.51298,0.01461
871.45281,0.01491
869.39263,0.01476
867.33246,0.01462
865.27229,0.01462
863.21212,0.01451
861.15194,0.01448
859.09177,0.01447
857.03160,0.01431
854.97143,0.01419
852.91126,0.01412
850.85108,0.01400
848.79091,0.01377
846.73074,0.01350
844.67057,0.01313
842.61040,0.01275
840.55022,0.01247
838.49005,0.01228
836.42988,0.01220
834.36971,0.01189
832.30954,0.01124
830.24936,0.01068
828.18919,0.01048
826.12902,0.01047
824.06885,0.01016
822.00867,0.00954
819.94850,0.00918
817.88833,0.00915
815.82816,0.00920
813.76799,0.00912
811.70781,0.00902
809.64764,0.00903
807.58747,0.00901
805.52730,0.00897
803.46713,0.00882
801.40695,0.00836
799.34678,0.00798
797.28661,0.00801
795.22644,0.00821
793.16627,0.00836
791.10609,0.00830
789.04592,0.00777
786.98575,0.00720
784.92558,0.00718
782.86540,0.00755
780.80523,0.00778
778.74506,0.00767
776.68489,0.00753
774.62472,0.00754
772.56454,0.00736
770.50437,0.00692
768.44420,0.00672
766.38403,0.00682
764.32386,0.00712
762.26368,0.00740
760.20351,0.00753
758.14334,0.00741
756.08317,0.00671
754.02299,0.00609
751.96282,0.00622
749.90265,0.00648
747.84248,0.00652
745.78231,0.00655
743.72213,0.00665
741.66196,0.00697
739.60179,0.00742
737.54162,0.00763
735.48145,0.00741
733.42127,0.00705
731.36110,0.00705
729.30093,0.00736
727.24076,0.00757
725.18059,0.00755
723.12041,0.00707
721.06024,0.00775
719.00007,0.00748
716.93990,0.00728
714.87972,0.00738
712.81955,0.00731
710.75938,0.00725
708.69921,0.00727
706.63904,0.00742
704.57886,0.00774
702.51869,0.00817
700.45852,0.00814
698.39835,0.00735
696.33818,0.00639
694.27800,0.00568
692.21783,0.00501
690.15766,0.00459
688.09749,0.00468
686.03731,0.00475
683.97714,0.00450
681.91697,0.00427
679.85680,0.00426
677.79663,0.00452
675.73645,0.00487
673.67628,0.00348
671.61611,0.00000
669.55594,0.00621
667.49577,0.01449
665.43559,0.00093
663.37542,0.00254
661.31525,0.00522
659.25508,0.00458
657.19491,0.00338
655.13473,0.00241
653.07456,0.00210
651.01439,0.00308
648.95422,0.00481
646.89404,0.00530
644.83387,0.00526
642.77370,0.00476
640.71353,0.00411
638.65336,0.00362
636.59318,0.00326
634.53301,0.00297
632.47284,0.00336
630.41267,0.00495
628.35250,0.00622
626.29232,0.00488
624.23215,0.00279
622.17198,0.00242
620.11181,0.00325
618.05164,0.00407
615.99146,0.00404
613.93129,0.00300
611.87112,0.00160
609.81095,0.00082
607.75077,0.00087
605.69060,0.00082
603.63043,0.00078
601.57026,0.00057
599.51009,0.00000
