3996.73391,-0.00033
3994.67373,-0.00035
3992.61356,-0.00031
3990.55339,-0.00018
3988.49322,-0.00007
3986.43305,0.00018
3984.37287,0.00060
3982.31270,0.00082
3980.25253,0.00058
3978.19236,0.00029
3976.13219,0.00024
3974.07201,0.00021
3972.01184,0.00017
3969.95167,0.00008
3967.89150,0.00003
3965.83133,0.00016
3963.77115,0.00022
3961.71098,0.00010
3959.65081,0.00000
3957.59064,0.00010
3955.53046,0.00040
3953.47029,0.00063
3951.41012,0.00066
3949.34995,0.00061
3947.28978,0.00050
3945.22960,0.00016
3943.16943,-0.00022
3941.10926,-0.00019
3939.04909,0.00021
3936.98892,0.00045
3934.92874,0.00035
3932.86857,0.00015
3930.80840,0.00027
3928.74823,0.00079
3926.68805,0.00113
3924.62788,0.00090
3922.56771,0.00048
3920.50754,0.00015
3918.44737,-0.00013
3916.38719,-0.00019
3914.32702,0.00004
3912.26685,0.00029
3910.20668,0.00042
3908.14651,0.00039
3906.08633,0.00022
3904.02616,0.00000
3901.96599,0.00000
3899.90582,0.00046
3897.84565,0.00100
3895.78547,0.00106
3893.72530,0.00078
3891.66513,0.00047
3889.60496,0.00015
3887.54478,-0.00002
3885.48461,0.00031
3883.42444,0.00097
3881.36427,0.00149
3879.30410,0.00176
3877.24392,0.00179
3875.18375,0.00176
3873.12358,0.00188
3871.06341,0.00202
3869.00324,0.00188
3866.94306,0.00149
3864.88289,0.00115
3862.82272,0.00098
3860.76255,0.00083
3858.70237,0.00061
3856.64220,0.00027
3854.58203,0.00000
3852.52186,0.00037
3850.46169,0.00111
3848.40151,0.00139
3846.34134,0.00115
3844.28117,0.00069
3842.22100,0.00041
3840.16083,0.00065
3838.10065,0.00137
3836.04048,0.00196
3833.98031,0.00188
3831.92014,0.00133
3829.85997,0.00080
3827.79979,0.00072
3825.73962,0.00104
3823.67945,0.00136
3821.61928,0.00147
3819.55910,0.00130
3817.49893,0.00106
3815.43876,0.00100
3813.37859,0.00106
3811.31842,0.00104
3809.25824,0.00108
3807.19807,0.00141
3805.13790,0.00180
3803.07773,0.00178
3801.01756,0.00144
3798.95738,0.00130
3796.89721,0.00121
3794.83704,0.00101
3792.77687,0.00116
3790.71670,0.00175
3788.65652,0.00205
3786.59635,0.00165
3784.53618,0.00110
3782.47601,0.00113
3780.41583,0.00163
3778.35566,0.00201
3776.29549,0.00203
3774.23532,0.00182
3772.17515,0.00170
3770.11497,0.00178
3768.05480,0.00169
3765.99463,0.00147
3763.93446,0.00157
3761.87429,0.00197
3759.81411,0.00232
3757.75394,0.00225
3755.69377,0.00185
3753.63360,0.00149
3751.57342,0.00110
3749.51325,0.00048
3747.45308,0.00000
3745.39291,0.00019
3743.33274,0.00112
3741.27256,0.00194
3739.21239,0.00207
3737.15222,0.00170
3735.09205,0.00126
3733.03188,0.00130
3730.97170,0.00199
3728.91153,0.00267
3726.85136,0.00264
3724.79119,0.00205
3722.73102,0.00149
3720.67084,0.00113
3718.61067,0.00103
3716.55050,0.00126
3714.49033,0.00143
3712.43015,0.00119
3710.36998,0.00095
3708.30981,0.00107
3706.24964,0.00120
3704.18947,0.00115
3702.12929,0.00123
3700.06912,0.00161
3698.00895,0.00209
3695.94878,0.00237
3693.88861,0.00226
3691.82843,0.00192
3689.76826,0.00163
3687.70809,0.00165
3685.64792,0.00208
3683.58775,0.00258
3681.52757,0.00277
3679.46740,0.00272
3677.40723,0.00269
3675.34706,0.00276
3673.28688,0.00298
3671.22671,0.00326
3669.16654,0.00304
3667.10637,0.00235
3665.04620,0.00187
3662.98602,0.00181
3660.92585,0.00200
3658.86568,0.00214
3656.80551,0.00224
3654.74534,0.00259
3652.68516,0.00302
3650.62499,0.00303
3648.56482,0.00271
3646.50465,0.00272
3644.44447,0.00313
3642.38430,0.00377
3640.32413,0.00457
3638.26396,0.00519
3636.20379,0.00521
3634.14361,0.00482
3632.08344,0.00473
3630.02327,0.00539
3627.96310,0.00633
3625.90293,0.00680
3623.84275,0.00678
3621.78258,0.00653
3619.72241,0.00655
3617.66224,0.00703
3615.60207,0.00736
3613.54189,0.00724
3611.48172,0.00713
3609.42155,0.00778
3607.36138,0.00900
3605.30120,0.00975
3603.24103,0.00955
3601.18086,0.00902
3599.12069,0.00900
3597.06052,0.00949
3595.00034,0.00995
3592.94017,0.01010
3590.88000,0.01002
3588.81983,0.00997
3586.75966,0.01026
3584.69948,0.01079
3582.63931,0.01133
3580.57914,0.01196
3578.51897,0.01251
3576.45879,0.01263
3574.39862,0.01248
3572.33845,0.01260
3570.27828,0.01303
3568.21811,0.01307
3566.15793,0.01261
3564.09776,0.01256
3562.03759,0.01308
3559.97742,0.01375
3557.91725,0.01443
3555.85707,0.01499
3553.79690,0.01527
3551.73673,0.01541
3549.67656,0.01553
3547.61639,0.01549
3545.55621,0.01560
3543.49604,0.01626
3541.43587,0.01700
3539.37570,0.01717
3537.31552,0.01694
3535.25535,0.01677
3533.19518,0.01692
3531.13501,0.01729
3529.07484,0.01764
3527.01466,0.01788
3524.95449,0.01835
3522.89432,0.01901
3520.83415,0.01934
3518.77398,0.01940
3516.71380,0.01944
3514.65363,0.01954
3512.59346,0.02002
3510.53329,0.02083
3508.47312,0.02135
3506.41294,0.02142
3504.35277,0.02132
3502.29260,0.02129
3500.23243,0.02146
3498.17225,0.02152
3496.11208,0.02137
3494.05191,0.02136
3491.99174,0.02172
3489.93157,0.02215
3487.87139,0.02226
3485.81122,0.02235
3483.75105,0.02284
3481.69088,0.02360
3479.63071,0.02421
3477.57053,0.02436
3475.51036,0.02418
3473.45019,0.02402
3471.39002,0.02405
3469.32984,0.02434
3467.26967,0.02472
3465.20950,0.02477
3463.14933,0.02442
3461.08916,0.02415
3459.02898,0.02461
3456.96881,0.02565
3454.90864,0.02636
3452.84847,0.02659
3450.78830,0.02687
3448.72812,0.02708
3446.66795,0.02693
3444.60778,0.02680
3442.54761,0.02691
3440.48744,0.02710
3438.42726,0.02725
3436.36709,0.02733
3434.30692,0.02745
3432.24675,0.02757
3430.18657,0.02756
3428.12640,0.02759
3426.06623,0.02775
3424.00606,0.02792
3421.94589,0.02811
3419.88571,0.02813
3417.82554,0.02812
3415.76537,0.02844
3413.70520,0.02879
3411.64503,0.02896
3409.58485,0.02917
3407.52468,0.02932
3405.46451,0.02934
3403.40434,0.02958
3401.34416,0.02994
3399.28399,0.03009
3397.22382,0.03024
3395.16365,0.03021
3393.10348,0.02988
3391.04330,0.02969
3388.98313,0.02997
3386.92296,0.03057
3384.86279,0.03092
3382.80262,0.03075
3380.74244,0.03047
3378.68227,0.03043
3376.62210,0.03066
3374.56193,0.03108
3372.50176,0.03136
3370.44158,0.03149
3368.38141,0.03162
3366.32124,0.03164
3364.26107,0.03167
3362.20089,0.03189
3360.14072,0.03193
3358.08055,0.03169
3356.02038,0.03161
3353.96021,0.03179
3351.90003,0.03195
3349.83986,0.03201
3347.77969,0.03208
3345.71952,0.03215
3343.65935,0.03215
3341.59917,0.03225
3339.53900,0.03251
3337.47883,0.03268
3335.41866,0.03245
3333.35849,0.03201
3331.29831,0.03192
3329.23814,0.03212
3327.17797,0.03208
3325.11780,0.03194
3323.05762,0.03210
3320.99745,0.03229
3318.93728,0.03220
3316.87711,0.03191
3314.81694,0.03195
3312.75676,0.03239
3310.69659,0.03270
3308.63642,0.03270
3306.57625,0.03254
3304.51608,0.03251
3302.45590,0.03267
3300.39573,0.03287
3298.33556,0.03300
3296.27539,0.03295
3294.21521,0.03290
3292.15504,0.03297
3290.09487,0.03302
3288.03470,0.03294
3285.97453,0.03287
3283.91435,0.03286
3281.85418,0.03298
3279.79401,0.03324
3277.73384,0.03331
3275.67367,0.03331
3273.61349,0.03350
3271.55332,0.03374
3269.49315,0.03368
3267.43298,0.03319
3265.37281,0.03273
3263.31263,0.03272
3261.25246,0.03290
3259.19229,0.03294
3257.13212,0.03283
3255.07194,0.03277
3253.01177,0.03282
3250.95160,0.03274
3248.89143,0.03270
3246.83126,0.03289
3244.77108,0.03313
3242.71091,0.03327
3240.65074,0.03323
3238.59057,0.03306
3236.53040,0.03296
3234.47022,0.03294
3232.41005,0.03292
3230.34988,0.03299
3228.28971,0.03311
3226.22954,0.03321
3224.16936,0.03327
3222.10919,0.03323
3220.04902,0.03312
3217.98885,0.03309
3215.92867,0.03308
3213.86850,0.03284
3211.80833,0.03249
3209.74816,0.03225
3207.68799,0.03230
3205.62781,0.03270
3203.56764,0.03291
3201.50747,0.03264
3199.44730,0.03236
3197.38713,0.03234
3195.32695,0.03242
3193.26678,0.03250
3191.20661,0.03250
3189.14644,0.03242
3187.08626,0.03234
3185.02609,0.03227
3182.96592,0.03228
3180.90575,0.03243
3178.84558,0.03240
3176.78540,0.03183
3174.72523,0.03112
3172.66506,0.03085
3170.60489,0.03099
3168.54472,0.03114
3166.48454,0.03121
3164.42437,0.03129
3162.36420,0.03136
3160.30403,0.03136
3158.24386,0.03122
3156.18368,0.03108
3154.12351,0.03112
3152.06334,0.03111
3150.00317,0.03090
3147.94299,0.03064
3145.88282,0.03047
3143.82265,0.03057
3141.76248,0.03081
3139.70231,0.03090
3137.64213,0.03086
3135.58196,0.03068
3133.52179,0.03030
3131.46162,0.03006
3129.40145,0.03011
3127.34127,0.02998
3125.28110,0.02950
3123.22093,0.02913
3121.16076,0.02904
3119.10058,0.02904
3117.04041,0.02910
3114.98024,0.02914
3112.92007,0.02908
3110.85990,0.02897
3108.79972,0.02887
3106.73955,0.02872
3104.67938,0.02850
3102.61921,0.02840
3100.55904,0.02848
3098.49886,0.02847
3096.43869,0.02819
3094.37852,0.02793
3092.31835,0.02775
3090.25818,0.02753
3088.19800,0.02735
3086.13783,0.02737
3084.07766,0.02758
3082.01749,0.02761
3079.95731,0.02730
3077.89714,0.02694
3075.83697,0.02655
3073.77680,0.02628
3071.71663,0.02642
3069.65645,0.02669
3067.59628,0.02665
3065.53611,0.02634
3063.47594,0.02609
3061.41577,0.02603
3059.35559,0.02595
3057.29542,0.02582
3055.23525,0.02566
3053.17508,0.02543
3051.11491,0.02524
3049.05473,0.02513
3046.99456,0.02497
3044.93439,0.02477
3042.87422,0.02468
3040.81404,0.02464
3038.75387,0.02452
3036.69370,0.02443
3034.63353,0.02439
3032.57336,0.02428
3030.51318,0.02410
3028.45301,0.02389
3026.39284,0.02362
3024.33267,0.02344
3022.27250,0.02336
3020.21232,0.02333
3018.15215,0.02330
3016.09198,0.02315
3014.03181,0.02301
3011.97163,0.02305
3009.91146,0.02312
3007.85129,0.02291
3005.79112,0.02249
3003.73095,0.02212
3001.67077,0.02194
2999.61060,0.02187
2997.55043,0.02188
2995.49026,0.02202
2993.43009,0.02208
2991.36991,0.02198
2989.30974,0.02185
2987.24957,0.02165
2985.18940,0.02132
2983.12923,0.02105
2981.06905,0.02108
2979.00888,0.02135
2976.94871,0.02146
2974.88854,0.02128
2972.82836,0.02111
2970.76819,0.02110
2968.70802,0.02099
2966.64785,0.02066
2964.58768,0.02045
2962.52750,0.02046
2960.46733,0.02063
2958.40716,0.02090
2956.34699,0.02106
2954.28682,0.02106
2952.22664,0.02107
2950.16647,0.02103
2948.10630,0.02087
2946.04613,0.02084
2943.98596,0.02095
2941.92578,0.02104
2939.86561,0.02112
2937.80544,0.02115
2935.74527,0.02090
2933.68509,0.02061
2931.62492,0.02058
2929.56475,0.02062
2927.50458,0.02070
2925.44441,0.02089
2923.38423,0.02098
2921.32406,0.02082
2919.26389,0.02048
2917.20372,0.02025
2915.14355,0.02036
2913.08337,0.02056
2911.02320,0.02039
2908.96303,0.01997
2906.90286,0.01969
2904.84268,0.01968
2902.78251,0.01986
2900.72234,0.01997
2898.66217,0.01985
2896.60200,0.01961
2894.54182,0.01944
2892.48165,0.01948
2890.42148,0.01967
2888.36131,0.01973
2886.30114,0.01966
2884.24096,0.01964
2882.18079,0.01959
2880.12062,0.01948
2878.06045,0.01941
2876.00028,0.01934
2873.94010,0.01921
2871.87993,0.01915
2869.81976,0.01909
2867.75959,0.01892
2865.69941,0.01866
2863.63924,0.01845
2861.57907,0.01834
2859.51890,0.01835
2857.45873,0.01846
2855.39855,0.01866
2853.33838,0.01889
2851.27821,0.01885
2849.21804,0.01845
2847.15787,0.01798
2845.09769,0.01778
2843.03752,0.01781
2840.97735,0.01783
2838.91718,0.01788
2836.85700,0.01781
2834.79683,0.01745
2832.73666,0.01723
2830.67649,0.01716
2828.61632,0.01692
2826.55614,0.01671
2824.49597,0.01669
2822.43580,0.01678
2820.37563,0.01690
2818.31546,0.01693
2816.25528,0.01696
2814.19511,0.01696
2812.13494,0.01676
2810.07477,0.01649
2808.01460,0.01634
2805.95442,0.01639
2803.89425,0.01650
2801.83408,0.01648
2799.77391,0.01642
2797.71373,0.01645
2795.65356,0.01638
2793.59339,0.01609
2791.53322,0.01590
2789.47305,0.01610
2787.41287,0.01632
2785.35270,0.01609
2783.29253,0.01574
2781.23236,0.01574
2779.17219,0.01597
2777.11201,0.01598
2775.05184,0.01565
2772.99167,0.01528
2770.93150,0.01516
2768.87133,0.01516
2766.81115,0.01518
2764.75098,0.01529
2762.69081,0.01532
2760.63064,0.01520
2758.57046,0.01509
2756.51029,0.01507
2754.45012,0.01511
2752.38995,0.01508
2750.32978,0.01503
2748.26960,0.01498
2746.20943,0.01492
2744.14926,0.01484
2742.08909,0.01466
2740.02892,0.01440
2737.96874,0.01419
2735.90857,0.01413
2733.84840,0.01420
2731.78823,0.01424
2729.72805,0.01419
2727.66788,0.01421
2725.60771,0.01445
2723.54754,0.01474
2721.48737,0.01468
2719.42719,0.01428
2717.36702,0.01392
2715.30685,0.01376
2713.24668,0.01363
2711.18651,0.01356
2709.12633,0.01373
2707.06616,0.01391
2705.00599,0.01376
2702.94582,0.01345
2700.88565,0.01320
2698.82547,0.01302
2696.76530,0.01306
2694.70513,0.01319
2692.64496,0.01313
2690.58478,0.01294
2688.52461,0.01283
2686.46444,0.01287
2684.40427,0.01294
2682.34410,0.01299
2680.28392,0.01305
2678.22375,0.01289
2676.16358,0.01244
2674.10341,0.01210
2672.04324,0.01214
2669.98306,0.01234
2667.92289,0.01222
2665.86272,0.01193
2663.80255,0.01187
2661.74238,0.01198
2659.68220,0.01206
2657.62203,0.01205
2655.56186,0.01205
2653.50169,0.01201
2651.44151,0.01183
2649.38134,0.01156
2647.32117,0.01135
2645.26100,0.01135
2643.20083,0.01150
2641.14065,0.01159
2639.08048,0.01165
2637.02031,0.01175
2634.96014,0.01170
2632.89997,0.01136
2630.83979,0.01103
2628.77962,0.01096
2626.71945,0.01093
2624.65928,0.01074
2622.59910,0.01072
2620.53893,0.01087
2618.47876,0.01083
2616.41859,0.01053
2614.35842,0.01013
2612.29824,0.00988
2610.23807,0.00989
2608.17790,0.00997
2606.11773,0.00980
2604.05756,0.00958
2601.99738,0.00978
2599.93721,0.01006
2597.87704,0.01008
2595.81687,0.01021
2593.75670,0.01034
2591.69652,0.01005
2589.63635,0.00959
2587.57618,0.00963
2585.51601,0.01013
2583.45583,0.01023
2581.39566,0.00983
2579.33549,0.00950
2577.27532,0.00935
2575.21515,0.00927
2573.15497,0.00905
2571.09480,0.00882
2569.03463,0.00890
2566.97446,0.00902
2564.91429,0.00903
2562.85411,0.00898
2560.79394,0.00888
2558.73377,0.00874
2556.67360,0.00863
2554.61342,0.00866
2552.55325,0.00892
2550.49308,0.00931
2548.43291,0.00948
2546.37274,0.00916
2544.31256,0.00878
2542.25239,0.00892
2540.19222,0.00926
2538.13205,0.00911
2536.07188,0.00872
2534.01170,0.00852
2531.95153,0.00848
2529.89136,0.00858
2527.83119,0.00861
2525.77102,0.00843
2523.71084,0.00833
2521.65067,0.00845
2519.59050,0.00856
2517.53033,0.00872
2515.47015,0.00897
2513.40998,0.00898
2511.34981,0.00885
2509.28964,0.00898
2507.22947,0.00931
2505.16929,0.00951
2503.10912,0.00947
2501.04895,0.00938
2498.98878,0.00937
2496.92861,0.00924
2494.86843,0.00903
2492.80826,0.00898
2490.74809,0.00903
2488.68792,0.00910
2486.62775,0.00917
2484.56757,0.00921
2482.50740,0.00947
2480.44723,0.00998
2478.38706,0.01036
2476.32688,0.01047
2474.26671,0.01033
2472.20654,0.01004
2470.14637,0.00977
2468.08620,0.00971
2466.02602,0.00977
2463.96585,0.00964
2461.90568,0.00940
2459.84551,0.00933
2457.78534,0.00969
2455.72516,0.01037
2453.66499,0.01076
2451.60482,0.01061
2449.54465,0.01027
2447.48447,0.01008
2445.42430,0.00983
2443.36413,0.00945
2441.30396,0.00924
2439.24379,0.00924
2437.18361,0.00919
2435.12344,0.00934
2433.06327,0.00975
2431.00310,0.00985
2428.94293,0.00971
2426.88275,0.00955
2424.82258,0.00922
2422.76241,0.00911
2420.70224,0.00935
2418.64207,0.00935
2416.58189,0.00921
2414.52172,0.00913
2412.46155,0.00928
2410.40138,0.00960
2408.34120,0.00970
2406.28103,0.00981
2404.22086,0.01001
2402.16069,0.00999
2400.10052,0.00974
2398.04034,0.00939
2395.98017,0.00932
2393.92000,0.00926
2391.85983,0.00913
2389.79966,0.00931
2387.73948,0.00994
2385.67931,0.01052
2383.61914,0.01041
2381.55897,0.00973
2379.49880,0.00907
2377.43862,0.00889
2375.37845,0.00922
2373.31828,0.00984
2371.25811,0.01017
2369.19793,0.00962
2367.13776,0.00825
2365.07759,0.00702
2363.01742,0.00733
2360.95725,0.00914
2358.89707,0.00838
2356.83690,0.00620
2354.77673,0.00636
2352.71656,0.00853
2350.65639,0.01100
2348.59621,0.01176
2346.53604,0.01039
2344.47587,0.01072
2342.41570,0.01164
2340.35552,0.01183
2338.29535,0.01177
2336.23518,0.01184
2334.17501,0.01245
2332.11484,0.01268
2330.05466,0.01205
2327.99449,0.01086
2325.93432,0.01004
2323.87415,0.00924
2321.81398,0.00861
2319.75380,0.00817
2317.69363,0.00875
2315.63346,0.00998
2313.57329,0.01062
2311.51312,0.01010
2309.45294,0.00931
2307.39277,0.00915
2305.33260,0.00944
2303.27243,0.00971
2301.21225,0.00957
2299.15208,0.00929
2297.09191,0.00923
2295.03174,0.00913
2292.97157,0.00891
2290.91139,0.00894
2288.85122,0.00923
2286.79105,0.00927
2284.73088,0.00891
2282.67071,0.00855
2280.61053,0.00828
2278.55036,0.00790
2276.49019,0.00756
2274.43002,0.00764
2272.36984,0.00796
2270.30967,0.00794
2268.24950,0.00741
2266.18933,0.00667
2264.12916,0.00619
2262.06898,0.00651
2260.00881,0.00746
2257.94864,0.00818
2255.88847,0.00820
2253.82830,0.00776
2251.76812,0.00747
2249.70795,0.00768
2247.64778,0.00773
2245.58761,0.00697
2243.52744,0.00609
2241.46726,0.00570
2239.40709,0.00590
2237.34692,0.00627
2235.28675,0.00658
2233.22657,0.00681
2231.16640,0.00636
2229.10623,0.00555
2227.04606,0.00541
2224.98589,0.00573
2222.92571,0.00598
2220.86554,0.00626
2218.80537,0.00645
2216.74520,0.00619
2214.68503,0.00575
2212.62485,0.00613
2210.56468,0.00701
2208.50451,0.00679
2206.44434,0.00554
2204.38417,0.00454
2202.32399,0.00399
2200.26382,0.00403
2198.20365,0.00454
2196.14348,0.00503
2194.08330,0.00590
2192.02313,0.00664
2189.96296,0.00638
2187.90279,0.00554
2185.84262,0.00439
2183.78244,0.00345
2181.72227,0.00350
2179.66210,0.00461
2177.60193,0.00617
2175.54176,0.00715
2173.48158,0.00726
2171.42141,0.00728
2169.36124,0.00705
2167.30107,0.00534
2165.24089,0.00322
2163.18072,0.00267
2161.12055,0.00241
2159.06038,0.00220
2157.00021,0.00353
2154.94003,0.00494
2152.87986,0.00553
2150.81969,0.00552
2148.75952,0.00463
2146.69935,0.00363
2144.63917,0.00319
2142.57900,0.00340
2140.51883,0.00408
2138.45866,0.00458
2136.39849,0.00496
2134.33831,0.00502
2132.27814,0.00490
2130.21797,0.00522
2128.15780,0.00570
2126.09762,0.00576
2124.03745,0.00509
2121.97728,0.00469
2119.91711,0.00540
2117.85694,0.00604
2115.79676,0.00553
2113.73659,0.00485
2111.67642,0.00464
2109.61625,0.00442
2107.55608,0.00439
2105.49590,0.00482
2103.43573,0.00517
2101.37556,0.00518
2099.31539,0.00511
2097.25521,0.00499
2095.19504,0.00500
2093.13487,0.00501
2091.07470,0.00499
2089.01453,0.00536
2086.95435,0.00554
2084.89418,0.00514
2082.83401,0.00466
2080.77384,0.00409
2078.71367,0.00372
2076.65349,0.00433
2074.59332,0.00550
2072.53315,0.00623
2070.47298,0.00636
2068.41281,0.00655
2066.35263,0.00676
2064.29246,0.00607
2062.23229,0.00450
2060.17212,0.00335
2058.11194,0.00365
2056.05177,0.00478
2053.99160,0.00575
2051.93143,0.00607
2049.87126,0.00522
2047.81108,0.00371
2045.75091,0.00278
2043.69074,0.00289
2041.63057,0.00355
2039.57040,0.00359
2037.51022,0.00334
2035.45005,0.00436
2033.38988,0.00602
2031.32971,0.00580
2029.26954,0.00367
2027.20936,0.00188
2025.14919,0.00108
2023.08902,0.00092
2021.02885,0.00151
2018.96867,0.00226
2016.90850,0.00266
2014.84833,0.00284
2012.78816,0.00270
2010.72799,0.00232
2008.66781,0.00186
2006.60764,0.00144
2004.54747,0.00096
2002.48730,0.00055
2000.42713,0.00114
1998.36695,0.00229
1996.30678,0.00299
1994.24661,0.00342
1992.18644,0.00378
1990.12626,0.00413
1988.06609,0.00405
1986.00592,0.00383
1983.94575,0.00483
1981.88558,0.00594
1979.82540,0.00537
1977.76523,0.00470
1975.70506,0.00501
1973.64489,0.00451
1971.58472,0.00289
1969.52454,0.00171
1967.46437,0.00111
1965.40420,0.00029
1963.34403,0.00000
1961.28386,0.00090
1959.22368,0.00203
1957.16351,0.00308
1955.10334,0.00415
1953.04317,0.00430
1950.98299,0.00396
1948.92282,0.00445
1946.86265,0.00552
1944.80248,0.00595
1942.74231,0.00526
1940.68213,0.00415
1938.62196,0.00336
1936.56179,0.00312
1934.50162,0.00356
1932.44145,0.00415
1930.38127,0.00423
1928.32110,0.00419
1926.26093,0.00440
1924.20076,0.00467
1922.14059,0.00484
1920.08041,0.00460
1918.02024,0.00421
1915.96007,0.00424
1913.89990,0.00424
1911.83972,0.00384
1909.77955,0.00358
1907.71938,0.00377
1905.65921,0.00432
1903.59904,0.00468
1901.53886,0.00448
1899.47869,0.00425
1897.41852,0.00422
1895.35835,0.00395
1893.29818,0.00331
1891.23800,0.00282
1889.17783,0.00298
1887.11766,0.00362
1885.05749,0.00391
1882.99731,0.00374
1880.93714,0.00370
1878.87697,0.00398
1876.81680,0.00432
1874.75663,0.00449
1872.69645,0.00445
1870.63628,0.00416
1868.57611,0.00375
1866.51594,0.00360
1864.45577,0.00373
1862.39559,0.00384
1860.33542,0.00394
1858.27525,0.00423
1856.21508,0.00461
1854.15491,0.00465
1852.09473,0.00432
1850.03456,0.00392
1847.97439,0.00370
1845.91422,0.00386
1843.85404,0.00430
1841.79387,0.00458
1839.73370,0.00458
1837.67353,0.00443
1835.61336,0.00418
1833.55318,0.00400
1831.49301,0.00413
1829.43284,0.00449
1827.37267,0.00464
1825.31250,0.00438
1823.25232,0.00400
1821.19215,0.00393
1819.13198,0.00428
1817.07181,0.00474
1815.01163,0.00479
1812.95146,0.00435
1810.89129,0.00406
1808.83112,0.00440
1806.77095,0.00494
1804.71077,0.00507
1802.65060,0.00484
1800.59043,0.00452
1798.53026,0.00426
1796.47009,0.00409
1794.40991,0.00397
1792.34974,0.00401
1790.28957,0.00443
1788.22940,0.00485
1786.16923,0.00493
1784.10905,0.00493
1782.04888,0.00509
1779.98871,0.00517
1777.92854,0.00516
1775.86836,0.00532
1773.80819,0.00563
1771.74802,0.00572
1769.68785,0.00530
1767.62768,0.00475
1765.56750,0.00459
1763.50733,0.00481
1761.44716,0.00514
1759.38699,0.00549
1757.32682,0.00575
1755.26664,0.00575
1753.20647,0.00559
1751.14630,0.00550
1749.08613,0.00555
1747.02596,0.00573
1744.96578,0.00604
1742.90561,0.00641
1740.84544,0.00676
1738.78527,0.00708
1736.72509,0.00733
1734.66492,0.00741
1732.60475,0.00730
1730.54458,0.00713
1728.48441,0.00703
1726.42423,0.00709
1724.36406,0.00734
1722.30389,0.00764
1720.24372,0.00778
1718.18355,0.00749
1716.12337,0.00699
1714.06320,0.00695
1712.00303,0.00715
1709.94286,0.00729
1707.88268,0.00753
1705.82251,0.00791
1703.76234,0.00824
1701.70217,0.00839
1699.64200,0.00839
1697.58182,0.00843
1695.52165,0.00858
1693.46148,0.00881
1691.40131,0.00905
1689.34114,0.00939
1687.28096,0.00984
1685.22079,0.01023
1683.16062,0.01037
1681.10045,0.01053
1679.04028,0.01087
1676.98010,0.01124
1674.91993,0.01150
1672.85976,0.01163
1670.79959,0.01177
1668.73941,0.01209
1666.67924,0.01248
1664.61907,0.01272
1662.55890,0.01286
1660.49873,0.01307
1658.43855,0.01323
1656.37838,0.01324
1654.31821,0.01325
1652.25804,0.01345
1650.19787,0.01382
1648.13769,0.01396
1646.07752,0.01374
1644.01735,0.01366
1641.95718,0.01386
1639.89701,0.01400
1637.83683,0.01394
1635.77666,0.01365
1633.71649,0.01333
1631.65632,0.01331
1629.59614,0.01342
1627.53597,0.01349
1625.47580,0.01364
1623.41563,0.01381
1621.35546,0.01382
1619.29528,0.01374
1617.23511,0.01350
1615.17494,0.01318
1613.11477,0.01305
1611.05460,0.01305
1608.99442,0.01302
1606.93425,0.01286
1604.87408,0.01262
1602.81391,0.01251
1600.75373,0.01251
1598.69356,0.01245
1596.63339,0.01226
1594.57322,0.01197
1592.51305,0.01164
1590.45287,0.01138
1588.39270,0.01110
1586.33253,0.01069
1584.27236,0.01023
1582.21219,0.00985
1580.15201,0.00959
1578.09184,0.00940
1576.03167,0.00915
1573.97150,0.00879
1571.91133,0.00840
1569.85115,0.00794
1567.79098,0.00757
1565.73081,0.00738
1563.67064,0.00736
1561.61046,0.00751
1559.55029,0.00756
1557.49012,0.00712
1555.42995,0.00669
1553.36978,0.00655
1551.30960,0.00651
1549.24943,0.00636
1547.18926,0.00606
1545.12909,0.00573
1543.06892,0.00558
1541.00874,0.00552
1538.94857,0.00529
1536.88840,0.00527
1534.82823,0.00541
1532.76805,0.00533
1530.70788,0.00500
1528.64771,0.00465
1526.58754,0.00448
1524.52737,0.00460
1522.46719,0.00468
1520.40702,0.00447
1518.34685,0.00427
1516.28668,0.00423
1514.22651,0.00412
1512.16633,0.00392
1510.10616,0.00381
1508.04599,0.00386
1505.98582,0.00396
1503.92565,0.00404
1501.86547,0.00398
1499.80530,0.00376
1497.74513,0.00357
1495.68496,0.00362
1493.62478,0.00367
1491.56461,0.00361
1489.50444,0.00366
1487.44427,0.00376
1485.38410,0.00377
1483.32392,0.00386
1481.26375,0.00414
1479.20358,0.00436
1477.14341,0.00434
1475.08324,0.00414
1473.02306,0.00402
1470.96289,0.00422
1468.90272,0.00462
1466.84255,0.00488
1464.78238,0.00489
1462.72220,0.00488
1460.66203,0.00496
1458.60186,0.00496
1456.54169,0.00481
1454.48151,0.00479
1452.42134,0.00495
1450.36117,0.00512
1448.30100,0.00523
1446.24083,0.00526
1444.18065,0.00520
1442.12048,0.00514
1440.06031,0.00511
1438.00014,0.00507
1435.93997,0.00511
1433.87979,0.00524
1431.81962,0.00528
1429.75945,0.00532
1427.69928,0.00552
1425.63910,0.00582
1423.57893,0.00608
1421.51876,0.00621
1419.45859,0.00626
1417.39842,0.00629
1415.33824,0.00633
1413.27807,0.00635
1411.21790,0.00633
1409.15773,0.00630
1407.09756,0.00626
1405.03738,0.00620
1402.97721,0.00614
1400.91704,0.00598
1398.85687,0.00568
1396.79670,0.00536
1394.73652,0.00514
1392.67635,0.00511
1390.61618,0.00522
1388.55601,0.00531
1386.49583,0.00537
1384.43566,0.00556
1382.37549,0.00579
1380.31532,0.00591
1378.25515,0.00594
1376.19497,0.00598
1374.13480,0.00595
1372.07463,0.00581
1370.01446,0.00564
1367.95429,0.00557
1365.89411,0.00560
1363.83394,0.00563
1361.77377,0.00557
1359.71360,0.00544
1357.65343,0.00527
1355.59325,0.00516
1353.53308,0.00501
1351.47291,0.00475
1349.41274,0.00457
1347.35256,0.00456
1345.29239,0.00462
1343.23222,0.00470
1341.17205,0.00471
1339.11188,0.00460
1337.05170,0.00456
1334.99153,0.00465
1332.93136,0.00470
1330.87119,0.00461
1328.81102,0.00453
1326.75084,0.00453
1324.69067,0.00455
1322.63050,0.00458
1320.57033,0.00466
1318.51015,0.00480
1316.44998,0.00492
1314.38981,0.00489
1312.32964,0.00477
1310.26947,0.00477
1308.20929,0.00485
1306.14912,0.00485
1304.08895,0.00480
1302.02878,0.00482
1299.96861,0.00487
1297.90843,0.00478
1295.84826,0.00463
1293.78809,0.00463
1291.72792,0.00472
1289.66775,0.00474
1287.60757,0.00469
1285.54740,0.00472
1283.48723,0.00492
1281.42706,0.00517
1279.36688,0.00525
1277.30671,0.00520
1275.24654,0.00518
1273.18637,0.00516
1271.12620,0.00514
1269.06602,0.00520
1267.00585,0.00538
1264.94568,0.00543
1262.88551,0.00529
1260.82534,0.00524
1258.76516,0.00535
1256.70499,0.00543
1254.64482,0.00550
1252.58465,0.00551
1250.52447,0.00534
1248.46430,0.00512
1246.40413,0.00499
1244.34396,0.00483
1242.28379,0.00467
1240.22361,0.00464
1238.16344,0.00463
1236.10327,0.00451
1234.04310,0.00436
1231.98293,0.00428
1229.92275,0.00417
1227.86258,0.00399
1225.80241,0.00379
1223.74224,0.00357
1221.68207,0.00342
1219.62189,0.00343
1217.56172,0.00346
1215.50155,0.00334
1213.44138,0.00310
1211.38120,0.00291
1209.32103,0.00283
1207.26086,0.00281
1205.20069,0.00273
1203.14052,0.00272
1201.08034,0.00285
1199.02017,0.00302
1196.96000,0.00317
1194.89983,0.00336
1192.83966,0.00348
1190.77948,0.00350
1188.71931,0.00375
1186.65914,0.00424
1184.59897,0.00470
1182.53880,0.00509
1180.47862,0.00547
1178.41845,0.00595
1176.35828,0.00655
1174.29811,0.00715
1172.23793,0.00778
1170.17776,0.00847
1168.11759,0.00905
1166.05742,0.00955
1163.99725,0.01009
1161.93707,0.01069
1159.87690,0.01136
1157.81673,0.01195
1155.75656,0.01232
1153.69639,0.01289
1151.63621,0.01371
1149.57604,0.01426
1147.51587,0.01465
1145.45570,0.01533
1143.39552,0.01630
1141.33535,0.01727
1139.27518,0.01797
1137.21501,0.01849
1135.15484,0.01909
1133.09466,0.01982
1131.03449,0.02068
1128.97432,0.02159
1126.91415,0.02238
1124.85398,0.02305
1122.79380,0.02375
1120.73363,0.02451
1118.67346,0.02532
1116.61329,0.02606
1114.55312,0.02673
1112.49294,0.02738
1110.43277,0.02797
1108.37260,0.02856
1106.31243,0.02907
1104.25225,0.02962
1102.19208,0.03043
1100.13191,0.03131
1098.07174,0.03208
1096.01157,0.03277
1093.95139,0.03356
1091.89122,0.03436
1089.83105,0.03495
1087.77088,0.03549
1085.71071,0.03603
1083.65053,0.03636
1081.59036,0.03664
1079.53019,0.03709
1077.47002,0.03753
1075.40985,0.03775
1073.34967,0.03791
1071.28950,0.03823
1069.22933,0.03864
1067.16916,0.03885
1065.10898,0.03882
1063.04881,0.03879
1060.98864,0.03875
1058.92847,0.03839
1056.86830,0.03788
1054.80812,0.03754
1052.74795,0.03722
1050.68778,0.03680
1048.62761,0.03648
1046.56744,0.03625
1044.50726,0.03571
1042.44709,0.03478
1040.38692,0.03388
1038.32675,0.03320
1036.26657,0.03260
1034.20640,0.03208
1032.14623,0.03159
1030.08606,0.03088
1028.02589,0.02996
1025.96571,0.02901
1023.90554,0.02823
1021.84537,0.02760
1019.78520,0.02687
1017.72503,0.02606
1015.66485,0.02558
1013.60468,0.02531
1011.54451,0.02492
1009.48434,0.02457
1007.42417,0.02429
1005.36399,0.02396
1003.30382,0.02382
1001.24365,0.02395
999.18348,0.02420
997.12330,0.02456
995.06313,0.02507
993.00296,0.02563
990.94279,0.02606
988.88262,0.02640
986.82244,0.02676
984.76227,0.02681
982.70210,0.02657
980.64193,0.02658
978.58176,0.02667
976.52158,0.02627
974.46141,0.02540
972.40124,0.02459
970.34107,0.02396
968.28089,0.02317
966.22072,0.02228
964.16055,0.02145
962.10038,0.02052
960.04021,0.01945
957.98003,0.01851
955.91986,0.01794
953.85969,0.01752
951.79952,0.01697
949.73935,0.01646
947.67917,0.01602
945.61900,0.01556
943.55883,0.01521
941.49866,0.01498
939.43849,0.01480
937.37831,0.01456
935.31814,0.01427
933.25797,0.01410
931.19780,0.01396
929.13762,0.01387
927.07745,0.01385
925.01728,0.01361
922.95711,0.01315
920.89694,0.01300
918.83676,0.01312
916.77659,0.01292
914.71642,0.01239
912.65625,0.01212
910.59608,0.01232
908.53590,0.01249
906.47573,0.01222
904.41556,0.01175
902.35539,0.01147
900.29522,0.01142
898.23504,0.01156
896.17487,0.01185
894.11470,0.01197
892.05453,0.01185
889.99435,0.01182
887.93418,0.01194
885.87401,0.01213
883.81384,0.01236
881.75367,0.01257
879.69349,0.01293
877.63332,0.01343
875.57315,0.01374
873.51298,0.01388
871.45281,0.01392
869.39263,0.01371
867.33246,0.01356
865.27229,0.01371
863.21212,0.01382
861.15194,0.01378
859.09177,0.01404
857.03160,0.01435
854.97143,0.01405
852.91126,0.01358
850.85108,0.01349
848.79091,0.01334
846.73074,0.01282
844.67057,0.01203
842.61040,0.01150
840.55022,0.01169
838.49005,0.01186
836.42988,0.01145
834.36971,0.01080
832.30954,0.00993
830.24936,0.00924
828.18919,0.00929
826.12902,0.00937
824.06885,0.00876
822.00867,0.00800
819.94850,0.00791
817.88833,0.00827
815.82816,0.00811
813.76799,0.00754
811.70781,0.00733
809.64764,0.00745
807.58747,0.00719
805.52730,0.00652
803.46713,0.00610
801.40695,0.00600
799.34678,0.00598
797.28661,0.00606
795.22644,0.00612
793.16627,0.00597
791.10609,0.00557
789.04592,0.00529
786.98575,0.00505
784.92558,0.00453
782.86540,0.00432
780.80523,0.00487
778.74506,0.00559
776.68489,0.00563
774.62472,0.00508
772.56454,0.00471
770.50437,0.00471
768.44420,0.00463
766.38403,0.00448
764.32386,0.00448
762.26368,0.00459
760.20351,0.00472
758.14334,0.00464
756.08317,0.00452
754.02299,0.00462
751.96282,0.00449
749.90265,0.00425
747.84248,0.00402
745.78231,0.00351
743.72213,0.00320
741.66196,0.00358
739.60179,0.00416
737.54162,0.00431
735.48145,0.00433
733.42127,0.00422
731.36110,0.00395
729.30093,0.00390
727.24076,0.00376
725.18059,0.00360
723.12041,0.00431
721.06024,0.00468
719.00007,0.00463
716.93990,0.00439
714.87972,0.00416
712.81955,0.00407
710.75938,0.00405
708.69921,0.00397
706.63904,0.00387
704.57886,0.00386
702.51869,0.00422
700.45852,0.00489
698.39835,0.00532
696.33818,0.00549
694.27800,0.00577
692.21783,0.00585
690.15766,0.00531
688.09749,0.00445
686.03731,0.00379
683.97714,0.00350
681.91697,0.00383
679.85680,0.00433
677.79663,0.00392
675.73645,0.00324
673.67628,0.00386
671.61611,0.00551
669.55594,0.00492
667.49577,0.00358
665.43559,0.00575
663.37542,0.00461
661.31525,0.00234
659.25508,0.00095
657.19491,0.00174
655.13473,0.00386
653.07456,0.00487
651.01439,0.00389
648.95422,0.00251
646.89404,0.00273
644.83387,0.00398
642.77370,0.00504
640.71353,0.00549
638.65336,0.00502
636.59318,0.00361
634.53301,0.00249
632.47284,0.00312
630.41267,0.00524
628.35250,0.00717
626.29232,0.00735
624.23215,0.00565
622.17198,0.00375
620.11181,0.00307
618.05164,0.00417
615.99146,0.00605
613.93129,0.00552
611.87112,0.00223
609.81095,0.00000
607.75077,0.00056
605.69060,0.00302
603.63043,0.00284
601.57026,0.00019
599.51009,0.00000
