3996.73391,0.00054
3994.67373,0.00072
3992.61356,0.00071
3990.55339,0.00047
3988.49322,0.00028
3986.43305,0.00030
3984.37287,0.00034
3982.31270,0.00042
3980.25253,0.00047
3978.19236,0.00035
3976.13219,0.00011
3974.07201,0.00000
3972.01184,0.00024
3969.95167,0.00081
3967.89150,0.00127
3965.83133,0.00131
3963.77115,0.00116
3961.71098,0.00106
3959.65081,0.00100
3957.59064,0.00089
3955.53046,0.00072
3953.47029,0.00057
3951.41012,0.00053
3949.34995,0.00058
3947.28978,0.00057
3945.22960,0.00040
3943.16943,0.00023
3941.10926,0.00029
3939.04909,0.00037
3936.98892,0.00033
3934.92874,0.00028
3932.86857,0.00039
3930.80840,0.00074
3928.74823,0.00114
3926.68805,0.00125
3924.62788,0.00108
3922.56771,0.00085
3920.50754,0.00075
3918.44737,0.00075
3916.38719,0.00080
3914.32702,0.00085
3912.26685,0.00092
3910.20668,0.00109
3908.14651,0.00115
3906.08633,0.00107
3904.02616,0.00115
3901.96599,0.00131
3899.90582,0.00133
3897.84565,0.00141
3895.78547,0.00151
3893.72530,0.00151
3891.66513,0.00148
3889.60496,0.00137
3887.54478,0.00106
3885.48461,0.00066
3883.42444,0.00048
3881.36427,0.00055
3879.30410,0.00070
3877.24392,0.00071
3875.18375,0.00063
3873.12358,0.00062
3871.06341,0.00059
3869.00324,0.00048
3866.94306,0.00038
3864.88289,0.00022
3862.82272,0.00014
3860.76255,0.00040
3858.70237,0.00083
3856.64220,0.00099
3854.58203,0.00081
3852.52186,0.00087
3850.46169,0.00126
3848.40151,0.00162
3846.34134,0.00181
3844.28117,0.00163
3842.22100,0.00109
3840.16083,0.00072
3838.10065,0.00092
3836.04048,0.00114
3833.98031,0.00090
3831.92014,0.00076
3829.85997,0.00107
3827.79979,0.00131
3825.73962,0.00117
3823.67945,0.00082
3821.61928,0.00053
3819.55910,0.00071
3817.49893,0.00128
3815.43876,0.00166
3813.37859,0.00160
3811.31842,0.00151
3809.25824,0.00171
3807.19807,0.00191
3805.13790,0.00152
3803.07773,0.00071
3801.01756,0.00044
3798.95738,0.00092
3796.89721,0.00137
3794.83704,0.00142
3792.77687,0.00116
3790.71670,0.00094
3788.65652,0.00096
3786.59635,0.00103
3784.53618,0.00104
3782.47601,0.00101
3780.41583,0.00104
3778.35566,0.00121
3776.29549,0.00137
3774.23532,0.00124
3772.17515,0.00084
3770.11497,0.00071
3768.05480,0.00111
3765.99463,0.00144
3763.93446,0.00144
3761.87429,0.00155
3759.81411,0.00175
3757.75394,0.00162
3755.69377,0.00116
3753.63360,0.00080
3751.57342,0.00072
3749.51325,0.00065
3747.45308,0.00028
3745.39291,0.00019
3743.33274,0.00108
3741.27256,0.00197
3739.21239,0.00194
3737.15222,0.00136
3735.09205,0.00116
3733.03188,0.00166
3730.97170,0.00199
3728.91153,0.00173
3726.85136,0.00132
3724.79119,0.00114
3722.73102,0.00130
3720.67084,0.00171
3718.61067,0.00190
3716.55050,0.00169
3714.49033,0.00141
3712.43015,0.00119
3710.36998,0.00126
3708.30981,0.00178
3706.24964,0.00223
3704.18947,0.00230
3702.12929,0.00216
3700.06912,0.00199
3698.00895,0.00188
3695.94878,0.00179
3693.88861,0.00168
3691.82843,0.00175
3689.76826,0.00228
3687.70809,0.00285
3685.64792,0.00290
3683.58775,0.00274
3681.52757,0.00257
3679.46740,0.00223
3677.40723,0.00187
3675.34706,0.00187
3673.28688,0.00217
3671.22671,0.00261
3669.16654,0.00333
3667.10637,0.00392
3665.04620,0.00417
3662.98602,0.00424
3660.92585,0.00405
3658.86568,0.00372
3656.80551,0.00386
3654.74534,0.00451
3652.68516,0.00513
3650.62499,0.00581
3648.56482,0.00664
3646.50465,0.00703
3644.44447,0.00707
3642.38430,0.00708
3640.32413,0.00706
3638.26396,0.00710
3636.20379,0.00739
3634.14361,0.00790
3632.08344,0.00835
3630.02327,0.00878
3627.96310,0.00952
3625.90293,0.01010
3623.84275,0.01021
3621.78258,0.01025
3619.72241,0.01034
3617.66224,0.01042
3615.60207,0.01074
3613.54189,0.01152
3611.48172,0.01262
3609.42155,0.01366
3607.36138,0.01418
3605.30120,0.01412
3603.24103,0.01401
3601.18086,0.01434
3599.12069,0.01513
3597.06052,0.01586
3595.00034,0.01613
3592.94017,0.01605
3590.88000,0.01597
3588.81983,0.01628
3586.75966,0.01716
3584.69948,0.01818
3582.63931,0.01894
3580.57914,0.01948
3578.51897,0.01985
3576.45879,0.02000
3574.39862,0.01996
3572.33845,0.01994
3570.27828,0.02019
3568.21811,0.02065
3566.15793,0.02131
3564.09776,0.02232
3562.03759,0.02341
3559.97742,0.02402
3557.91725,0.02411
3555.85707,0.02415
3553.79690,0.02442
3551.73673,0.02491
3549.67656,0.02533
3547.61639,0.02553
3545.55621,0.02594
3543.49604,0.02678
3541.43587,0.02758
3539.37570,0.02795
3537.31552,0.02807
3535.25535,0.02829
3533.19518,0.02860
3531.13501,0.02886
3529.07484,0.02933
3527.01466,0.03017
3524.95449,0.03100
3522.89432,0.03162
3520.83415,0.03209
3518.77398,0.03229
3516.71380,0.03231
3514.65363,0.03235
3512.59346,0.03253
3510.53329,0.03299
3508.47312,0.03356
3506.41294,0.03388
3504.35277,0.03420
3502.29260,0.03480
3500.23243,0.03534
3498.17225,0.03551
3496.11208,0.03551
3494.05191,0.03577
3491.99174,0.03635
3489.93157,0.03696
3487.87139,0.03739
3485.81122,0.03774
3483.75105,0.03809
3481.69088,0.03816
3479.63071,0.03798
3477.57053,0.03824
3475.51036,0.03897
3473.45019,0.03946
3471.39002,0.03958
3469.32984,0.03978
3467.26967,0.04016
3465.20950,0.04045
3463.14933,0.04061
3461.08916,0.04073
3459.02898,0.04110
3456.96881,0.04184
3454.90864,0.04269
3452.84847,0.04326
3450.78830,0.04327
3448.72812,0.04295
3446.66795,0.04301
3444.60778,0.04349
3442.54761,0.04385
3440.48744,0.04403
3438.42726,0.04426
3436.36709,0.04462
3434.30692,0.04498
3432.24675,0.04515
3430.18657,0.04523
3428.12640,0.04548
3426.06623,0.04573
3424.00606,0.04582
3421.94589,0.04586
3419.88571,0.04589
3417.82554,0.04613
3415.76537,0.04675
3413.70520,0.04742
3411.64503,0.04770
3409.58485,0.04769
3407.52468,0.04758
3405.46451,0.04762
3403.40434,0.04795
3401.34416,0.04828
3399.28399,0.04848
3397.22382,0.04858
3395.16365,0.04868
3393.10348,0.04907
3391.04330,0.04965
3388.98313,0.04976
3386.92296,0.04953
3384.86279,0.04973
3382.80262,0.05020
3380.74244,0.05030
3378.68227,0.05010
3376.62210,0.04988
3374.56193,0.04977
3372.50176,0.04999
3370.44158,0.05047
3368.38141,0.05077
3366.32124,0.05070
3364.26107,0.05038
3362.20089,0.05011
3360.14072,0.05013
3358.08055,0.05041
3356.02038,0.05086
3353.96021,0.05120
3351.90003,0.05120
3349.83986,0.05110
3347.77969,0.05101
3345.71952,0.05098
3343.65935,0.05124
3341.59917,0.05147
3339.53900,0.05145
3337.47883,0.05145
3335.41866,0.05161
3333.35849,0.05160
3331.29831,0.05127
3329.23814,0.05102
3327.17797,0.05112
3325.11780,0.05144
3323.05762,0.05175
3320.99745,0.05175
3318.93728,0.05141
3316.87711,0.05128
3314.81694,0.05142
3312.75676,0.05147
3310.69659,0.05136
3308.63642,0.05115
3306.57625,0.05102
3304.51608,0.05120
3302.45590,0.05161
3300.39573,0.05189
3298.33556,0.05180
3296.27539,0.05159
3294.21521,0.05154
3292.15504,0.05160
3290.09487,0.05157
3288.03470,0.05149
3285.97453,0.05158
3283.91435,0.05186
3281.85418,0.05191
3279.79401,0.05162
3277.73384,0.05149
3275.67367,0.05180
3273.61349,0.05206
3271.55332,0.05207
3269.49315,0.05205
3267.43298,0.05195
3265.37281,0.05183
3263.31263,0.05188
3261.25246,0.05193
3259.19229,0.05188
3257.13212,0.05177
3255.07194,0.05183
3253.01177,0.05206
3250.95160,0.05205
3248.89143,0.05173
3246.83126,0.05157
3244.77108,0.05161
3242.71091,0.05157
3240.65074,0.05149
3238.59057,0.05146
3236.53040,0.05110
3234.47022,0.05048
3232.41005,0.05027
3230.34988,0.05057
3228.28971,0.05099
3226.22954,0.05124
3224.16936,0.05119
3222.10919,0.05097
3220.04902,0.05081
3217.98885,0.05070
3215.92867,0.05055
3213.86850,0.05045
3211.80833,0.05044
3209.74816,0.05050
3207.68799,0.05055
3205.62781,0.05039
3203.56764,0.05009
3201.50747,0.04993
3199.44730,0.04977
3197.38713,0.04955
3195.32695,0.04965
3193.26678,0.04981
3191.20661,0.04959
3189.14644,0.04922
3187.08626,0.04900
3185.02609,0.04889
3182.96592,0.04878
3180.90575,0.04863
3178.84558,0.04852
3176.78540,0.04841
3174.72523,0.04817
3172.66506,0.04801
3170.60489,0.04794
3168.54472,0.04773
3166.48454,0.04752
3164.42437,0.04742
3162.36420,0.04726
3160.30403,0.04699
3158.24386,0.04674
3156.18368,0.04657
3154.12351,0.04638
3152.06334,0.04606
3150.00317,0.04583
3147.94299,0.04579
3145.88282,0.04565
3143.82265,0.04541
3141.76248,0.04526
3139.70231,0.04525
3137.64213,0.04518
3135.58196,0.04486
3133.52179,0.04446
3131.46162,0.04423
3129.40145,0.04415
3127.34127,0.04414
3125.28110,0.04403
3123.22093,0.04385
3121.16076,0.04374
3119.10058,0.04349
3117.04041,0.04311
3114.98024,0.04283
3112.92007,0.04269
3110.85990,0.04259
3108.79972,0.04232
3106.73955,0.04184
3104.67938,0.04163
3102.61921,0.04170
3100.55904,0.04147
3098.49886,0.04089
3096.43869,0.04044
3094.37852,0.04044
3092.31835,0.04066
3090.25818,0.04066
3088.19800,0.04038
3086.13783,0.04024
3084.07766,0.04034
3082.01749,0.04014
3079.95731,0.03955
3077.89714,0.03925
3075.83697,0.03939
3073.77680,0.03954
3071.71663,0.03953
3069.65645,0.03937
3067.59628,0.03906
3065.53611,0.03869
3063.47594,0.03826
3061.41577,0.03779
3059.35559,0.03749
3057.29542,0.03735
3055.23525,0.03711
3053.17508,0.03679
3051.11491,0.03655
3049.05473,0.03646
3046.99456,0.03639
3044.93439,0.03610
3042.87422,0.03574
3040.81404,0.03556
3038.75387,0.03537
3036.69370,0.03515
3034.63353,0.03500
3032.57336,0.03486
3030.51318,0.03466
3028.45301,0.03444
3026.39284,0.03423
3024.33267,0.03404
3022.27250,0.03394
3020.21232,0.03381
3018.15215,0.03351
3016.09198,0.03313
3014.03181,0.03275
3011.97163,0.03244
3009.91146,0.03228
3007.85129,0.03229
3005.79112,0.03236
3003.73095,0.03225
3001.67077,0.03190
2999.61060,0.03149
2997.55043,0.03126
2995.49026,0.03121
2993.43009,0.03125
2991.36991,0.03118
2989.30974,0.03086
2987.24957,0.03058
2985.18940,0.03058
2983.12923,0.03047
2981.06905,0.03015
2979.00888,0.03009
2976.94871,0.03029
2974.88854,0.03034
2972.82836,0.03006
2970.76819,0.02963
2968.70802,0.02943
2966.64785,0.02968
2964.58768,0.03010
2962.52750,0.03025
2960.46733,0.03010
2958.40716,0.02996
2956.34699,0.03006
2954.28682,0.03014
2952.22664,0.03007
2950.16647,0.03010
2948.10630,0.03022
2946.04613,0.03022
2943.98596,0.03026
2941.92578,0.03035
2939.86561,0.03030
2937.80544,0.03011
2935.74527,0.02979
2933.68509,0.02947
2931.62492,0.02948
2929.56475,0.02972
2927.50458,0.02968
2925.44441,0.02944
2923.38423,0.02935
2921.32406,0.02928
2919.26389,0.02911
2917.20372,0.02896
2915.14355,0.02882
2913.08337,0.02867
2911.02320,0.02845
2908.96303,0.02818
2906.90286,0.02796
2904.84268,0.02775
2902.78251,0.02755
2900.72234,0.02749
2898.66217,0.02746
2896.60200,0.02733
2894.54182,0.02726
2892.48165,0.02735
2890.42148,0.02722
2888.36131,0.02684
2886.30114,0.02687
2884.24096,0.02722
2882.18079,0.02729
2880.12062,0.02721
2878.06045,0.02710
2876.00028,0.02686
2873.94010,0.02667
2871.87993,0.02662
2869.81976,0.02656
2867.75959,0.02643
2865.69941,0.02612
2863.63924,0.02568
2861.57907,0.02540
2859.51890,0.02532
2857.45873,0.02527
2855.39855,0.02526
2853.33838,0.02525
2851.27821,0.02511
2849.21804,0.02498
2847.15787,0.02494
2845.09769,0.02484
2843.03752,0.02468
2840.97735,0.02444
2838.91718,0.02415
2836.85700,0.02394
2834.79683,0.02382
2832.73666,0.02377
2830.67649,0.02374
2828.61632,0.02359
2826.55614,0.02339
2824.49597,0.02322
2822.43580,0.02313
2820.37563,0.02310
2818.31546,0.02305
2816.25528,0.02281
2814.19511,0.02241
2812.13494,0.02210
2810.07477,0.02179
2808.01460,0.02153
2805.95442,0.02161
2803.89425,0.02181
2801.83408,0.02184
2799.77391,0.02188
2797.71373,0.02206
2795.65356,0.02217
2793.59339,0.02196
2791.53322,0.02150
2789.47305,0.02121
2787.41287,0.02115
2785.35270,0.02115
2783.29253,0.02114
2781.23236,0.02107
2779.17219,0.02103
2777.11201,0.02107
2775.05184,0.02104
2772.99167,0.02096
2770.93150,0.02093
2768.87133,0.02082
2766.81115,0.02055
2764.75098,0.02030
2762.69081,0.02016
2760.63064,0.02004
2758.57046,0.01998
2756.51029,0.01996
2754.45012,0.01987
2752.38995,0.01981
2750.32978,0.01983
2748.26960,0.01988
2746.20943,0.01992
2744.14926,0.01990
2742.08909,0.01982
2740.02892,0.01973
2737.96874,0.01960
2735.90857,0.01934
2733.84840,0.01900
2731.78823,0.01877
2729.72805,0.01873
2727.66788,0.01866
2725.60771,0.01849
2723.54754,0.01839
2721.48737,0.01833
2719.42719,0.01838
2717.36702,0.01850
2715.30685,0.01844
2713.24668,0.01814
2711.18651,0.01785
2709.12633,0.01771
2707.06616,0.01769
2705.00599,0.01774
2702.94582,0.01761
2700.88565,0.01736
2698.82547,0.01726
2696.76530,0.01728
2694.70513,0.01730
2692.64496,0.01727
2690.58478,0.01718
2688.52461,0.01701
2686.46444,0.01680
2684.40427,0.01674
2682.34410,0.01684
2680.28392,0.01680
2678.22375,0.01658
2676.16358,0.01640
2674.10341,0.01623
2672.04324,0.01617
2669.98306,0.01623
2667.92289,0.01621
2665.86272,0.01615
2663.80255,0.01613
2661.74238,0.01610
2659.68220,0.01602
2657.62203,0.01594
2655.56186,0.01584
2653.50169,0.01569
2651.44151,0.01552
2649.38134,0.01544
2647.32117,0.01540
2645.26100,0.01524
2643.20083,0.01500
2641.14065,0.01491
2639.08048,0.01487
2637.02031,0.01476
2634.96014,0.01479
2632.89997,0.01488
2630.83979,0.01480
2628.77962,0.01455
2626.71945,0.01409
2624.65928,0.01359
2622.59910,0.01321
2620.53893,0.01304
2618.47876,0.01312
2616.41859,0.01323
2614.35842,0.01323
2612.29824,0.01313
2610.23807,0.01304
2608.17790,0.01300
2606.11773,0.01305
2604.05756,0.01320
2601.99738,0.01334
2599.93721,0.01333
2597.87704,0.01310
2595.81687,0.01284
2593.75670,0.01277
2591.69652,0.01269
2589.63635,0.01238
2587.57618,0.01214
2585.51601,0.01212
2583.45583,0.01203
2581.39566,0.01175
2579.33549,0.01152
2577.27532,0.01141
2575.21515,0.01141
2573.15497,0.01143
2571.09480,0.01134
2569.03463,0.01151
2566.97446,0.01214
2564.91429,0.01263
2562.85411,0.01264
2560.79394,0.01241
2558.73377,0.01197
2556.67360,0.01150
2554.61342,0.01147
2552.55325,0.01171
2550.49308,0.01180
2548.43291,0.01183
2546.37274,0.01195
2544.31256,0.01194
2542.25239,0.01164
2540.19222,0.01151
2538.13205,0.01177
2536.07188,0.01203
2534.01170,0.01216
2531.95153,0.01230
2529.89136,0.01220
2527.83119,0.01190
2525.77102,0.01175
2523.71084,0.01163
2521.65067,0.01149
2519.59050,0.01138
2517.53033,0.01140
2515.47015,0.01163
2513.40998,0.01174
2511.34981,0.01189
2509.28964,0.01219
2507.22947,0.01229
2505.16929,0.01222
2503.10912,0.01187
2501.04895,0.01137
2498.98878,0.01122
2496.92861,0.01133
2494.86843,0.01140
2492.80826,0.01151
2490.74809,0.01185
2488.68792,0.01207
2486.62775,0.01205
2484.56757,0.01211
2482.50740,0.01224
2480.44723,0.01232
2478.38706,0.01229
2476.32688,0.01206
2474.26671,0.01183
2472.20654,0.01197
2470.14637,0.01231
2468.08620,0.01239
2466.02602,0.01223
2463.96585,0.01231
2461.90568,0.01269
2459.84551,0.01290
2457.78534,0.01270
2455.72516,0.01234
2453.66499,0.01208
2451.60482,0.01207
2449.54465,0.01251
2447.48447,0.01319
2445.42430,0.01346
2443.36413,0.01313
2441.30396,0.01260
2439.24379,0.01227
2437.18361,0.01227
2435.12344,0.01239
2433.06327,0.01244
2431.00310,0.01247
2428.94293,0.01244
2426.88275,0.01245
2424.82258,0.01279
2422.76241,0.01323
2420.70224,0.01327
2418.64207,0.01298
2416.58189,0.01258
2414.52172,0.01214
2412.46155,0.01197
2410.40138,0.01224
2408.34120,0.01246
2406.28103,0.01229
2404.22086,0.01209
2402.16069,0.01210
2400.10052,0.01220
2398.04034,0.01253
2395.98017,0.01284
2393.92000,0.01295
2391.85983,0.01284
2389.79966,0.01264
2387.73948,0.01249
2385.67931,0.01251
2383.61914,0.01257
2381.55897,0.01253
2379.49880,0.01258
2377.43862,0.01280
2375.37845,0.01300
2373.31828,0.01314
2371.25811,0.01339
2369.19793,0.01436
2367.13776,0.01559
2365.07759,0.01442
2363.01742,0.01072
2360.95725,0.00871
2358.89707,0.01043
2356.83690,0.01324
2354.77673,0.01449
2352.71656,0.01453
2350.65639,0.01432
2348.59621,0.01385
2346.53604,0.01326
2344.47587,0.01317
2342.41570,0.01354
2340.35552,0.01384
2338.29535,0.01396
2336.23518,0.01390
2334.17501,0.01352
2332.11484,0.01304
2330.05466,0.01292
2327.99449,0.01318
2325.93432,0.01366
2323.87415,0.01400
2321.81398,0.01352
2319.75380,0.01237
2317.69363,0.01166
2315.63346,0.01183
2313.57329,0.01226
2311.51312,0.01236
2309.45294,0.01221
2307.39277,0.01216
2305.33260,0.01243
2303.27243,0.01278
2301.21225,0.01291
2299.15208,0.01296
2297.09191,0.01300
2295.03174,0.01285
2292.97157,0.01253
2290.91139,0.01228
2288.85122,0.01220
2286.79105,0.01223
2284.73088,0.01223
2282.67071,0.01201
2280.61053,0.01150
2278.55036,0.01099
2276.49019,0.01074
2274.43002,0.01069
2272.36984,0.01067
2270.30967,0.01054
2268.24950,0.01033
2266.18933,0.01033
2264.12916,0.01073
2262.06898,0.01109
2260.00881,0.01094
2257.94864,0.01063
2255.88847,0.01049
2253.82830,0.01041
2251.76812,0.01024
2249.70795,0.00992
2247.64778,0.00987
2245.58761,0.01002
2243.52744,0.00984
2241.46726,0.00981
2239.40709,0.00979
2237.34692,0.00955
2235.28675,0.00931
2233.22657,0.00899
2231.16640,0.00919
2229.10623,0.00992
2227.04606,0.01008
2224.98589,0.00970
2222.92571,0.00946
2220.86554,0.00939
2218.80537,0.00903
2216.74520,0.00826
2214.68503,0.00779
2212.62485,0.00806
2210.56468,0.00832
2208.50451,0.00792
2206.44434,0.00728
2204.38417,0.00746
2202.32399,0.00821
2200.26382,0.00857
2198.20365,0.00889
2196.14348,0.00936
2194.08330,0.00965
2192.02313,0.00935
2189.96296,0.00840
2187.90279,0.00743
2185.84262,0.00693
2183.78244,0.00729
2181.72227,0.00840
2179.66210,0.00886
2177.60193,0.00783
2175.54176,0.00639
2173.48158,0.00582
2171.42141,0.00635
2169.36124,0.00741
2167.30107,0.00803
2165.24089,0.00781
2163.18072,0.00724
2161.12055,0.00575
2159.06038,0.00321
2157.00021,0.00150
2154.94003,0.00187
2152.87986,0.00338
2150.81969,0.00397
2148.75952,0.00425
2146.69935,0.00553
2144.63917,0.00649
2142.57900,0.00672
2140.51883,0.00685
2138.45866,0.00646
2136.39849,0.00569
2134.33831,0.00555
2132.27814,0.00618
2130.21797,0.00640
2128.15780,0.00591
2126.09762,0.00580
2124.03745,0.00644
2121.97728,0.00721
2119.91711,0.00749
2117.85694,0.00763
2115.79676,0.00811
2113.73659,0.00822
2111.67642,0.00799
2109.61625,0.00805
2107.55608,0.00821
2105.49590,0.00796
2103.43573,0.00760
2101.37556,0.00764
2099.31539,0.00768
2097.25521,0.00719
2095.19504,0.00657
2093.13487,0.00667
2091.07470,0.00714
2089.01453,0.00707
2086.95435,0.00662
2084.89418,0.00630
2082.83401,0.00626
2080.77384,0.00639
2078.71367,0.00654
2076.65349,0.00711
2074.59332,0.00778
2072.53315,0.00760
2070.47298,0.00724
2068.41281,0.00721
2066.35263,0.00718
2064.29246,0.00733
2062.23229,0.00724
2060.17212,0.00680
2058.11194,0.00638
2056.05177,0.00628
2053.99160,0.00718
2051.93143,0.00807
2049.87126,0.00731
2047.81108,0.00596
2045.75091,0.00563
2043.69074,0.00596
2041.63057,0.00632
2039.57040,0.00724
2037.51022,0.00840
2035.45005,0.00790
2033.38988,0.00554
2031.32971,0.00345
2029.26954,0.00269
2027.20936,0.00314
2025.14919,0.00451
2023.08902,0.00531
2021.02885,0.00482
2018.96867,0.00456
2016.90850,0.00511
2014.84833,0.00520
2012.78816,0.00434
2010.72799,0.00295
2008.66781,0.00202
2006.60764,0.00252
2004.54747,0.00356
2002.48730,0.00381
2000.42713,0.00385
1998.36695,0.00445
1996.30678,0.00503
1994.24661,0.00504
1992.18644,0.00493
1990.12626,0.00510
1988.06609,0.00538
1986.00592,0.00586
1983.94575,0.00665
1981.88558,0.00702
1979.82540,0.00550
1977.76523,0.00265
1975.70506,0.00165
1973.64489,0.00268
1971.58472,0.00329
1969.52454,0.00280
1967.46437,0.00273
1965.40420,0.00376
1963.34403,0.00451
1961.28386,0.00472
1959.22368,0.00523
1957.16351,0.00560
1955.10334,0.00500
1953.04317,0.00403
1950.98299,0.00383
1948.92282,0.00438
1946.86265,0.00497
1944.80248,0.00517
1942.74231,0.00487
1940.68213,0.00464
1938.62196,0.00491
1936.56179,0.00505
1934.50162,0.00486
1932.44145,0.00473
1930.38127,0.00462
1928.32110,0.00440
1926.26093,0.00437
1924.20076,0.00464
1922.14059,0.00485
1920.08041,0.00492
1918.02024,0.00504
1915.96007,0.00506
1913.89990,0.00491
1911.83972,0.00477
1909.77955,0.00483
1907.71938,0.00508
1905.65921,0.00512
1903.59904,0.00504
1901.53886,0.00513
1899.47869,0.00502
1897.41852,0.00469
1895.35835,0.00446
1893.29818,0.00434
1891.23800,0.00443
1889.17783,0.00494
1887.11766,0.00549
1885.05749,0.00564
1882.99731,0.00551
1880.93714,0.00542
1878.87697,0.00548
1876.81680,0.00555
1874.75663,0.00535
1872.69645,0.00494
1870.63628,0.00470
1868.57611,0.00489
1866.51594,0.00532
1864.45577,0.00556
1862.39559,0.00547
1860.33542,0.00525
1858.27525,0.00513
1856.21508,0.00504
1854.15491,0.00490
1852.09473,0.00482
1850.03456,0.00486
1847.97439,0.00505
1845.91422,0.00542
1843.85404,0.00576
1841.79387,0.00568
1839.73370,0.00535
1837.67353,0.00535
1835.61336,0.00575
1833.55318,0.00596
1831.49301,0.00570
1829.43284,0.00537
1827.37267,0.00535
1825.31250,0.00549
1823.25232,0.00553
1821.19215,0.00539
1819.13198,0.00522
1817.07181,0.00529
1815.01163,0.00550
1812.95146,0.00564
1810.89129,0.00571
1808.83112,0.00577
1806.77095,0.00582
1804.71077,0.00590
1802.65060,0.00600
1800.59043,0.00604
1798.53026,0.00597
1796.47009,0.00579
1794.40991,0.00563
1792.34974,0.00576
1790.28957,0.00600
1788.22940,0.00598
1786.16923,0.00586
1784.10905,0.00587
1782.04888,0.00593
1779.98871,0.00596
1777.92854,0.00598
1775.86836,0.00591
1773.80819,0.00571
1771.74802,0.00560
1769.68785,0.00578
1767.62768,0.00620
1765.56750,0.00663
1763.50733,0.00692
1761.44716,0.00705
1759.38699,0.00706
1757.32682,0.00706
1755.26664,0.00710
1753.20647,0.00710
1751.14630,0.00709
1749.08613,0.00724
1747.02596,0.00766
1744.96578,0.00811
1742.90561,0.00833
1740.84544,0.00839
1738.78527,0.00858
1736.72509,0.00881
1734.66492,0.00892
1732.60475,0.00900
1730.54458,0.00911
1728.48441,0.00931
1726.42423,0.00963
1724.36406,0.00996
1722.30389,0.01005
1720.24372,0.00976
1718.18355,0.00940
1716.12337,0.00965
1714.06320,0.01031
1712.00303,0.01072
1709.94286,0.01083
1707.88268,0.01096
1705.82251,0.01127
1703.76234,0.01164
1701.70217,0.01201
1699.64200,0.01245
1697.58182,0.01279
1695.52165,0.01308
1693.46148,0.01341
1691.40131,0.01377
1689.34114,0.01417
1687.28096,0.01428
1685.22079,0.01428
1683.16062,0.01496
1681.10045,0.01591
1679.04028,0.01639
1676.98010,0.01658
1674.91993,0.01704
1672.85976,0.01779
1670.79959,0.01855
1668.73941,0.01921
1666.67924,0.01952
1664.61907,0.01956
1662.55890,0.01981
1660.49873,0.02034
1658.43855,0.02069
1656.37838,0.02062
1654.31821,0.02048
1652.25804,0.02081
1650.19787,0.02105
1648.13769,0.02100
1646.07752,0.02121
1644.01735,0.02152
1641.95718,0.02153
1639.89701,0.02129
1637.83683,0.02100
1635.77666,0.02112
1633.71649,0.02156
1631.65632,0.02175
1629.59614,0.02159
1627.53597,0.02130
1625.47580,0.02109
1623.41563,0.02105
1621.35546,0.02110
1619.29528,0.02101
1617.23511,0.02077
1615.17494,0.02057
1613.11477,0.02045
1611.05460,0.02032
1608.99442,0.02014
1606.93425,0.01998
1604.87408,0.01982
1602.81391,0.01953
1600.75373,0.01902
1598.69356,0.01839
1596.63339,0.01775
1594.57322,0.01719
1592.51305,0.01674
1590.45287,0.01638
1588.39270,0.01603
1586.33253,0.01562
1584.27236,0.01517
1582.21219,0.01469
1580.15201,0.01409
1578.09184,0.01345
1576.03167,0.01294
1573.97150,0.01259
1571.91133,0.01220
1569.85115,0.01183
1567.79098,0.01161
1565.73081,0.01130
1563.67064,0.01072
1561.61046,0.01005
1559.55029,0.00959
1557.49012,0.00957
1555.42995,0.00960
1553.36978,0.00943
1551.30960,0.00914
1549.24943,0.00892
1547.18926,0.00873
1545.12909,0.00826
1543.06892,0.00751
1541.00874,0.00708
1538.94857,0.00729
1536.88840,0.00739
1534.82823,0.00719
1532.76805,0.00704
1530.70788,0.00690
1528.64771,0.00657
1526.58754,0.00624
1524.52737,0.00617
1522.46719,0.00628
1520.40702,0.00630
1518.34685,0.00605
1516.28668,0.00585
1514.22651,0.00581
1512.16633,0.00561
1510.10616,0.00519
1508.04599,0.00495
1505.98582,0.00523
1503.92565,0.00542
1501.86547,0.00523
1499.80530,0.00497
1497.74513,0.00498
1495.68496,0.00512
1493.62478,0.00500
1491.56461,0.00466
1489.50444,0.00463
1487.44427,0.00506
1485.38410,0.00541
1483.32392,0.00548
1481.26375,0.00544
1479.20358,0.00534
1477.14341,0.00522
1475.08324,0.00517
1473.02306,0.00549
1470.96289,0.00619
1468.90272,0.00672
1466.84255,0.00695
1464.78238,0.00714
1462.72220,0.00725
1460.66203,0.00711
1458.60186,0.00703
1456.54169,0.00737
1454.48151,0.00766
1452.42134,0.00753
1450.36117,0.00727
1448.30100,0.00714
1446.24083,0.00713
1444.18065,0.00715
1442.12048,0.00717
1440.06031,0.00717
1438.00014,0.00719
1435.93997,0.00741
1433.87979,0.00770
1431.81962,0.00786
1429.75945,0.00792
1427.69928,0.00790
1425.63910,0.00786
1423.57893,0.00798
1421.51876,0.00825
1419.45859,0.00861
1417.39842,0.00898
1415.33824,0.00913
1413.27807,0.00907
1411.21790,0.00897
1409.15773,0.00892
1407.09756,0.00887
1405.03738,0.00874
1402.97721,0.00844
1400.91704,0.00800
1398.85687,0.00759
1396.79670,0.00739
1394.73652,0.00741
1392.67635,0.00753
1390.61618,0.00757
1388.55601,0.00758
1386.49583,0.00761
1384.43566,0.00763
1382.37549,0.00763
1380.31532,0.00764
1378.25515,0.00763
1376.19497,0.00764
1374.13480,0.00773
1372.07463,0.00777
1370.01446,0.00763
1367.95429,0.00740
1365.89411,0.00720
1363.83394,0.00706
1361.77377,0.00699
1359.71360,0.00687
1357.65343,0.00664
1355.59325,0.00640
1353.53308,0.00623
1351.47291,0.00611
1349.41274,0.00601
1347.35256,0.00593
1345.29239,0.00584
1343.23222,0.00571
1341.17205,0.00560
1339.11188,0.00555
1337.05170,0.00551
1334.99153,0.00538
1332.93136,0.00525
1330.87119,0.00523
1328.81102,0.00533
1326.75084,0.00543
1324.69067,0.00547
1322.63050,0.00531
1320.57033,0.00505
1318.51015,0.00500
1316.44998,0.00521
1314.38981,0.00544
1312.32964,0.00553
1310.26947,0.00546
1308.20929,0.00539
1306.14912,0.00541
1304.08895,0.00542
1302.02878,0.00536
1299.96861,0.00535
1297.90843,0.00537
1295.84826,0.00539
1293.78809,0.00545
1291.72792,0.00548
1289.66775,0.00544
1287.60757,0.00542
1285.54740,0.00548
1283.48723,0.00557
1281.42706,0.00568
1279.36688,0.00578
1277.30671,0.00581
1275.24654,0.00587
1273.18637,0.00596
1271.12620,0.00595
1269.06602,0.00595
1267.00585,0.00604
1264.94568,0.00620
1262.88551,0.00629
1260.82534,0.00621
1258.76516,0.00611
1256.70499,0.00612
1254.64482,0.00616
1252.58465,0.00616
1250.52447,0.00613
1248.46430,0.00606
1246.40413,0.00595
1244.34396,0.00575
1242.28379,0.00553
1240.22361,0.00535
1238.16344,0.00522
1236.10327,0.00516
1234.04310,0.00504
1231.98293,0.00479
1229.92275,0.00460
1227.86258,0.00458
1225.80241,0.00452
1223.74224,0.00421
1221.68207,0.00383
1219.62189,0.00359
1217.56172,0.00342
1215.50155,0.00320
1213.44138,0.00299
1211.38120,0.00286
1209.32103,0.00277
1207.26086,0.00268
1205.20069,0.00264
1203.14052,0.00261
1201.08034,0.00255
1199.02017,0.00254
1196.96000,0.00266
1194.89983,0.00274
1192.83966,0.00276
1190.77948,0.00299
1188.71931,0.00339
1186.65914,0.00382
1184.59897,0.00441
1182.53880,0.00503
1180.47862,0.00551
1178.41845,0.00604
1176.35828,0.00675
1174.29811,0.00762
1172.23793,0.00850
1170.17776,0.00933
1168.11759,0.01019
1166.05742,0.01114
1163.99725,0.01213
1161.93707,0.01294
1159.87690,0.01355
1157.81673,0.01418
1155.75656,0.01486
1153.69639,0.01563
1151.63621,0.01652
1149.57604,0.01750
1147.51587,0.01851
1145.45570,0.01936
1143.39552,0.02001
1141.33535,0.02061
1139.27518,0.02138
1137.21501,0.02237
1135.15484,0.02344
1133.09466,0.02451
1131.03449,0.02566
1128.97432,0.02682
1126.91415,0.02791
1124.85398,0.02892
1122.79380,0.02982
1120.73363,0.03068
1118.67346,0.03176
1116.61329,0.03292
1114.55312,0.03404
1112.49294,0.03533
1110.43277,0.03678
1108.37260,0.03815
1106.31243,0.03931
1104.25225,0.04027
1102.19208,0.04127
1100.13191,0.04247
1098.07174,0.04378
1096.01157,0.04505
1093.95139,0.04611
1091.89122,0.04707
1089.83105,0.04803
1087.77088,0.04889
1085.71071,0.04979
1083.65053,0.05076
1081.59036,0.05159
1079.53019,0.05235
1077.47002,0.05308
1075.40985,0.05379
1073.34967,0.05446
1071.28950,0.05474
1069.22933,0.05468
1067.16916,0.05484
1065.10898,0.05519
1063.04881,0.05516
1060.98864,0.05475
1058.92847,0.05420
1056.86830,0.05368
1054.80812,0.05329
1052.74795,0.05284
1050.68778,0.05229
1048.62761,0.05159
1046.56744,0.05062
1044.50726,0.04971
1042.44709,0.04891
1040.38692,0.04782
1038.32675,0.04663
1036.26657,0.04564
1034.20640,0.04465
1032.14623,0.04351
1030.08606,0.04235
1028.02589,0.04128
1025.96571,0.04035
1023.90554,0.03948
1021.84537,0.03853
1019.78520,0.03749
1017.72503,0.03653
1015.66485,0.03553
1013.60468,0.03430
1011.54451,0.03327
1009.48434,0.03259
1007.42417,0.03199
1005.36399,0.03166
1003.30382,0.03160
1001.24365,0.03155
999.18348,0.03177
997.12330,0.03239
995.06313,0.03322
993.00296,0.03396
990.94279,0.03432
988.88262,0.03453
986.82244,0.03480
984.76227,0.03484
982.70210,0.03466
980.64193,0.03438
978.58176,0.03392
976.52158,0.03312
974.46141,0.03196
972.40124,0.03052
970.34107,0.02892
968.28089,0.02749
966.22072,0.02625
964.16055,0.02493
962.10038,0.02377
960.04021,0.02284
957.98003,0.02192
955.91986,0.02096
953.85969,0.01989
951.79952,0.01877
949.73935,0.01772
947.67917,0.01697
945.61900,0.01670
943.55883,0.01662
941.49866,0.01652
939.43849,0.01647
937.37831,0.01634
935.31814,0.01600
933.25797,0.01577
931.19780,0.01560
929.13762,0.01517
927.07745,0.01468
925.01728,0.01435
922.95711,0.01405
920.89694,0.01372
918.83676,0.01334
916.77659,0.01284
914.71642,0.01217
912.65625,0.01146
910.59608,0.01078
908.53590,0.01028
906.47573,0.01034
904.41556,0.01078
902.35539,0.01103
900.29522,0.01100
898.23504,0.01082
896.17487,0.01077
894.11470,0.01110
892.05453,0.01149
889.99435,0.01167
887.93418,0.01184
885.87401,0.01226
883.81384,0.01274
881.75367,0.01290
879.69349,0.01323
877.63332,0.01397
875.57315,0.01443
873.51298,0.01457
871.45281,0.01461
869.39263,0.01455
867.33246,0.01470
865.27229,0.01513
863.21212,0.01527
861.15194,0.01483
859.09177,0.01430
857.03160,0.01426
854.97143,0.01444
852.91126,0.01418
850.85108,0.01356
848.79091,0.01307
846.73074,0.01292
844.67057,0.01298
842.61040,0.01271
840.55022,0.01185
838.49005,0.01092
836.42988,0.01042
834.36971,0.01021
832.30954,0.00993
830.24936,0.00951
828.18919,0.00927
826.12902,0.00913
824.06885,0.00867
822.00867,0.00801
819.94850,0.00762
817.88833,0.00761
815.82816,0.00761
813.76799,0.00747
811.70781,0.00714
809.64764,0.00684
807.58747,0.00681
805.52730,0.00661
803.46713,0.00600
801.40695,0.00566
799.34678,0.00581
797.28661,0.00571
795.22644,0.00545
793.16627,0.00554
791.10609,0.00577
789.04592,0.00600
786.98575,0.00613
784.92558,0.00587
782.86540,0.00520
780.80523,0.00442
778.74506,0.00424
776.68489,0.00468
774.62472,0.00488
772.56454,0.00487
770.50437,0.00489
768.44420,0.00476
766.38403,0.00429
764.32386,0.00372
762.26368,0.00357
760.20351,0.00394
758.14334,0.00443
756.08317,0.00438
754.02299,0.00376
751.96282,0.00334
749.90265,0.00378
747.84248,0.00468
745.78231,0.00474
743.72213,0.00377
741.66196,0.00310
739.60179,0.00309
737.54162,0.00326
735.48145,0.00365
733.42127,0.00398
731.36110,0.00403
729.30093,0.00433
727.24076,0.00485
725.18059,0.00494
723.12041,0.00494
721.06024,0.00541
719.00007,0.00579
716.93990,0.00548
714.87972,0.00476
712.81955,0.00428
710.75938,0.00416
708.69921,0.00396
706.63904,0.00349
704.57886,0.00330
702.51869,0.00368
700.45852,0.00404
698.39835,0.00377
696.33818,0.00306
694.27800,0.00278
692.21783,0.00326
690.15766,0.00386
688.09749,0.00412
686.03731,0.00419
683.97714,0.00411
681.91697,0.00397
679.85680,0.00432
677.79663,0.00517
675.73645,0.00542
673.67628,0.00499
671.61611,0.00479
669.55594,0.00438
667.49577,0.00378
665.43559,0.00447
663.37542,0.00568
661.31525,0.00638
659.25508,0.00616
657.19491,0.00534
655.13473,0.00512
653.07456,0.00602
651.01439,0.00711
648.95422,0.00729
646.89404,0.00614
644.83387,0.00444
642.77370,0.00403
640.71353,0.00531
638.65336,0.00592
636.59318,0.00494
634.53301,0.00449
632.47284,0.00511
630.41267,0.00533
628.35250,0.00537
626.29232,0.00598
624.23215,0.00591
622.17198,0.00431
620.11181,0.00277
618.05164,0.00386
615.99146,0.00700
613.93129,0.00836
611.87112,0.00765
609.81095,0.00618
607.75077,0.00460
605.69060,0.00267
603.63043,0.00080
601.57026,0.00000
599.51009,0.00000
